Time (ms),ECG_Signal (mV),Filtered_ECG (mV),HRV (ms),P_Wave_Amplitude (mV),T_Wave_Amplitude (mV),QRS_Duration (ms),ST_Segment (mV),PR_Interval (ms),Label (Diabetes)
10,0.8745401188473625,0.8115667046150864,778.5117051207718,0.2509054491313347,0.3143991756567186,95.74542081109769,0.05930278163112879,123.103956378311,1
20,1.4507143064099162,1.4590944958855878,774.0936397216,0.26950220957870585,0.36108646585999726,98.93742637500085,-0.13104545515793353,134.94180225849036,0
30,1.231993941811405,1.3065831089866866,971.8763741563109,0.18757018481887483,0.3520321859580318,114.18189572808721,0.14895782534192598,186.49966440719538,0
40,1.0986584841970366,1.1451034614789488,774.8638599548518,0.24373111494104982,0.23077998093875474,93.60017544239568,0.045246495627696615,181.34146850706685,1
50,0.6560186404424365,0.7173308700147265,781.5849178385893,0.2357618974715623,0.2298498939482948,114.78598739248685,-0.1371184465772183,148.05141531657176,0
60,0.6559945203362026,0.6877511936783461,927.8194787253891,0.27492455651824066,0.2536348735489827,83.52537723906767,0.18493522299248272,150.144850221937,0
70,0.5580836121681995,0.59653892507177,834.921952735162,0.28591305907218906,0.27221494526820744,111.07193748834523,0.007346185334128258,162.68435468428635,1
80,1.366176145774935,1.436015276087999,933.0131670865544,0.15182351572160802,0.2816911162816965,113.90190532218946,-0.170840619251338,120.01928037481076,0
90,1.1011150117432087,1.0510486135150459,719.6098472693155,0.2511029878588189,0.33593944336666903,87.27270611349356,0.05073316176602688,139.29954688304224,0
100,1.2080725777960455,1.2059575705246737,846.2713581020153,0.15777536986795934,0.2113360864331671,97.21386129488802,-0.09872043719487592,136.65854468865714,0
110,0.5205844942958024,0.46482638265972287,710.0840800549848,0.23232879976160337,0.2069345408452133,86.61999098654623,0.12147738075092102,140.0386357399811,1
120,1.4699098521619942,1.5674434537613235,718.7959610366064,0.1931449093565517,0.2783821125887818,108.26416515976871,0.12712882942647624,184.4724674026753,0
130,1.3324426408004217,1.4212545087377444,971.9312360033233,0.19601648992832116,0.33943273842759614,101.41391072246627,0.19157894234186473,142.37390852371544,0
140,0.7123391106782762,0.6202244729519774,741.7736113352786,0.20294377551785348,0.23868706859129651,105.41293386833284,0.0007478124098014849,135.32170576401185,0
150,0.6818249672071006,0.7229400017102383,859.7262046825651,0.24319386735744153,0.32830089625125036,87.85947867824845,-0.01801724810890515,160.34107686344254,0
160,0.6834045098534338,0.768454173336567,823.3286807802119,0.20010749485031537,0.2519656275880599,88.46983448209679,0.10139024217859227,189.25160290981856,1
170,0.8042422429595377,0.7403573119850044,804.2029978776528,0.25990485758854204,0.3772172217627033,81.65989302039625,-0.14701173746322937,139.307976307,0
180,1.024756431632238,1.0383454777427639,969.9500037061817,0.21067910783608046,0.37913798885332334,92.88270140782919,0.018766205517249668,126.2828994234239,0
190,0.9319450186421158,1.0150426781597242,706.5470190326469,0.1602529800464938,0.2594574408562653,102.389786453347,0.018499040052340376,148.51237886797318,0
200,0.7912291401980419,0.6980183359152017,899.1369058526767,0.2675639763726161,0.2459987507926481,114.31739655989315,-0.16421075087584514,179.81214596519823,1
210,1.1118528947223796,1.1513369481717475,989.0183302640651,0.19286374868890588,0.28226079441324625,106.67709789834723,-0.03280636579723456,164.05524357558357,0
220,0.6394938606520418,0.5989636621265519,868.0504550385526,0.21491503193988937,0.24810631703602976,97.41585293599006,0.14131391942688082,185.3434695659478,1
230,0.7921446485352182,0.8770238876105243,981.0467386099276,0.2528165824832852,0.33447676865834075,118.12480457576551,0.1424614487978641,196.76737180873872,1
240,0.8663618432936917,0.9605734923267653,715.6773637858071,0.1998684235723068,0.3652129369096571,108.76980802303328,-0.16030493403212762,183.41299814012936,0
250,0.9560699842170359,1.0449232820397227,825.6379957222484,0.15848784842200733,0.3346184261822434,117.206608114502,-0.16371164690086767,168.30424630750028,0
260,1.2851759613930136,1.2800188047245062,778.0473372886154,0.20608815705192202,0.3648700894498699,101.10351893088662,-0.09492180919922588,159.46732704419043,0
270,0.6996737821583597,0.7720823123562224,919.2462894942189,0.2916672874041455,0.27939843244149487,90.35617099172558,0.1499064250215974,123.20552690786133,1
280,1.0142344384136117,1.0831443181206257,994.389127149174,0.2462601595947837,0.2312633941417722,82.11306745458887,-0.14843896597060044,198.7457583051233,0
290,1.0924145688620426,1.0562346635106936,776.9590187332743,0.25072187230008103,0.3475901894795185,109.04339405935403,0.0879987210509785,150.6784898060034,0
300,0.5464504127199977,0.6122335075501332,896.2523804422224,0.24484232304564596,0.2720949010283108,84.85211992022137,-0.15953375215475873,132.17825711334933,1
310,1.1075448519014384,1.014946378844537,759.429289827922,0.1798488208439155,0.3342541650458265,92.11100513087868,0.049255141499130156,173.33670843171654,0
320,0.6705241236872915,0.6897780993837022,869.599076371483,0.212750079615342,0.25412878839635317,101.2988363153559,-0.05757308035234207,142.74306312763673,0
330,0.5650515929852795,0.5110533604428201,839.1797460065009,0.26264096975449774,0.21624592696133454,102.5766635111899,0.1155655851863468,166.86226167448382,0
340,1.4488855372533331,1.3729989144087889,991.6015988894611,0.16520593463297387,0.3985163590975527,104.02332787948544,-0.10652382046985456,166.94143262756728,0
350,1.4656320330745594,1.3810226734004012,882.5581818089399,0.19167791641345683,0.23124030158611986,86.65021321398802,0.055680731755983925,155.65838567222954,1
360,1.3083973481164612,1.3476551032920892,804.8519116260456,0.19144786626987803,0.39768419879269623,95.18949619286595,-0.10572698616964603,186.8894892436034,0
370,0.8046137691733707,0.7725887619269839,734.22873546638,0.2148028391391759,0.3954559865132895,104.68776908467866,0.08546411324486153,141.19736492443545,0
380,0.5976721140063839,0.6426254683121362,745.3740486204804,0.29705531114132777,0.35876362078160795,118.79275458535139,0.1494712138242995,155.89060732941874,1
390,1.1842330265121568,1.0973042946719453,767.5950789853705,0.16012538200257329,0.33188459241639956,109.10524550798755,-0.149279280349296,163.01537028727773,0
400,0.9401524937396013,0.9032105613057234,775.2899984020894,0.22780514915708924,0.315561410050217,116.90415028375831,0.1466382754382014,173.08997766138395,1
410,0.6220382348447788,0.6299364933198462,955.1848173523414,0.17690470230183156,0.37322030907556697,110.48848233256709,0.037430101765719176,182.71774804044716,1
420,0.9951769101112702,1.053321543079063,868.3668364847574,0.2956014818114616,0.25788790432389763,103.66867875569602,-0.14915580365319042,151.58458263026048,0
430,0.5343885211152184,0.4981390217016324,857.0172734123099,0.16699552570911963,0.2935362424969754,87.68093476545378,-0.02898325785611519,171.68375552772767,0
440,1.409320402078782,1.4344986773661839,734.4306615607652,0.21054015035423868,0.3238779938733004,106.66742607570052,-0.13565588260596084,132.04887624548152,1
450,0.7587799816000169,0.8359755312472543,958.0419080048305,0.2606827477251909,0.28223809517389825,104.93518263839628,0.08013915554662782,194.61184804339828,0
460,1.162522284353982,1.185694921990443,916.8442909625451,0.2556831642041168,0.28549729081805364,104.09876681829066,0.10354725376717988,150.64470451368027,0
470,0.811711076089411,0.7583029710401377,720.3005085700005,0.21340929553408983,0.2660569335004169,99.59143471952963,-0.15768139189088043,178.36171375811506,1
480,1.0200680211778108,0.9249481774891184,912.3505291689306,0.2019786251929077,0.31284636333690724,101.14626415957102,0.0024559410778577373,121.62728655057421,0
490,1.0467102793432796,1.1207300541234657,863.0614652027938,0.20964185678293057,0.37011490560302324,93.37770108472417,0.12585002241036686,136.41497143238456,1
500,0.684854455525527,0.5891083376956044,724.5176037240335,0.1896414394737959,0.2403056756012626,100.77250770569214,0.1744652166203986,158.96660354588624,0
510,1.4695846277645586,1.5445249623013984,837.490192458597,0.18079994080601997,0.3868866077506883,87.90223622713913,0.005407146696707998,190.26019741858772,0
520,1.2751328233611146,1.2809202501665569,845.4088861390142,0.2224559546338335,0.33781753074964593,112.20697589441508,0.18011168944456285,162.18041199605418,0
530,1.4394989415641892,1.5273124812667684,749.7323620489827,0.1902800634101411,0.36465464253600605,87.43107818794832,0.014275588182411925,194.3896385835103,1
540,1.394827350427649,1.454583997582382,983.7094441000847,0.1931192497345875,0.31123813852600235,83.39865159557866,-0.04232380216003681,158.7037517266237,0
550,1.097899978811085,1.1974868009177526,954.9926114441986,0.24851340952118356,0.35590334028481274,97.4498410542863,0.13928125142115821,159.235927738876,1
560,1.4218742350231168,1.392016598113459,900.7067011987325,0.29528059975498383,0.20324007946789346,106.33229758024248,-0.0028069158167643715,129.57974308004256,0
570,0.5884925020519195,0.6419301598381448,838.6886683001821,0.24054558008390625,0.3636760849559071,97.50867299734165,-0.011238995774190796,184.2124995321776,0
580,0.6959828624191452,0.6763690451409936,823.5296624753526,0.16154692005974494,0.20802777181707333,91.07016527805234,-0.00387500423606868,139.757232997365,0
590,0.5452272889105381,0.5412024129713199,895.2920401452863,0.16133754207811005,0.3779826752725725,102.32684735561763,0.13871400074789814,191.9689991497852,0
600,0.8253303307632643,0.8508314234069383,863.6295608220717,0.2927134831268349,0.39839254944772867,93.880093416488,0.13277661667522084,192.86593762643167,0
610,0.888677289689482,0.9634127125267498,718.6819317645657,0.19459361854610002,0.25881349243535556,117.31470760506532,-0.03859200302391552,195.46480894993198,0
620,0.7713490317738959,0.8681657256137549,853.7507946310996,0.1638100479123713,0.24206371125715875,116.90580558414288,-0.06668005605179,161.6184391282472,0
630,1.3287375091519293,1.382392191924833,941.9210851698518,0.23985668807255722,0.35307267277160814,100.09487279888381,-0.0032287903843482846,174.16750278269154,1
640,0.8567533266935893,0.840306683127056,837.7719632790875,0.2435473167435399,0.25060526818405066,93.11535976073034,0.02910900389484361,182.28127040493308,0
650,0.7809345096873808,0.7652059101427948,715.5869732662806,0.2472757230178032,0.3731124766344407,109.48529655826556,-0.10466511574880122,130.48116949203725,1
660,1.0426960831582486,1.0902125434760268,935.8834598152099,0.19011030417863117,0.22056851843149536,81.46851773932266,0.11758203388623628,168.07657559979978,0
670,0.6409242249747626,0.5886796541284232,760.4091346407923,0.15226660263217126,0.22519103927587167,98.99076024174605,-0.0054068937070308465,122.74383210426494,0
680,1.3021969807540397,1.2242918033803185,777.5862504664117,0.29475230541817077,0.3958303110201231,93.45293577081334,-0.06638178063201616,159.8052866710981,0
690,0.5745506436797708,0.5454750752079262,749.4119060296888,0.18763395685366535,0.33476777965400095,116.82143540410219,-0.15727160281440378,132.38741452961818,0
700,1.4868869366005173,1.4443347349313336,799.0645194614492,0.2514039432078821,0.3693774448857906,80.4801210909073,-0.10446193583855723,134.63383407696676,0
710,1.2722447692966574,1.2315063933878554,927.0254517065905,0.2559944804818064,0.2648658754703036,102.11259502873396,0.1797124687023935,149.2038053354081,0
720,0.6987156815341724,0.6454372317441543,855.8157578511812,0.24150111256192286,0.3352967499041209,109.62654324266504,-0.07796012527218937,154.59497333732025,0
730,0.5055221171236024,0.4139407550508748,761.4643822452138,0.19693610913204723,0.31884836546171946,99.40071950096166,-0.1324562842531859,169.85379396257497,1
740,1.3154614284548343,1.219036215401517,963.3490234456123,0.19066443806460986,0.3206300240245894,83.41612120650886,-0.01573088333800271,125.95427347508125,0
750,1.2068573438476171,1.3044018217948234,963.8745564854587,0.23965024240540544,0.33650649190754434,118.8984556011161,-0.07716490265590054,160.29534089899556,1
760,1.2290071680409873,1.2145617947881597,961.1735275138021,0.2799143450417537,0.3150718346258197,100.72041725504391,-0.18593629989152236,134.6100104202481,0
770,1.2712703466859456,1.248135676117882,771.6388634144618,0.2920100593385093,0.2858124738605332,104.56744977276045,-0.0707419130882331,165.91801400253934,0
780,0.5740446517340904,0.6099741082727044,835.3718032542964,0.16588587066056365,0.25518453887610937,89.46439130830029,0.017643449575787423,170.9923689808947,0
790,0.8584657285442726,0.8021165061172855,995.4968968422625,0.17322429188965796,0.3537162661826404,99.33992340427216,0.02068494880798677,164.53674052422832,0
800,0.6158690595251297,0.7058612963151748,931.6037428929972,0.29171043881746195,0.24525448600063726,97.16597967833287,-0.057376431529244515,179.0636408382646,0
810,1.3631034258755936,1.420372428758704,708.150226367668,0.26048028425021885,0.3384708612308829,82.99583368007934,-0.021078897498959748,146.84873953927212,0
820,1.123298126827558,1.0411803272900098,719.5613773781477,0.2824490737244659,0.24666656452986535,84.24641414189868,0.18620716729390657,181.20852733065047,0
830,0.8308980248526492,0.8144141800096348,839.1794130436998,0.18039489512030146,0.3250660339908908,113.49890078475099,-0.04906060910787535,154.6213665366555,0
840,0.5635583502860236,0.6393820117984566,972.766061758468,0.23813788066641028,0.34941565342580583,89.5927980882636,-0.09670927469600682,158.73475986580775,0
850,0.8109823217156622,0.8999287261739443,861.6105393858143,0.255170939162621,0.24374277778130785,87.79833085994522,-0.10261318237329596,171.84817018088572,0
860,0.825183322026747,0.818663624276721,849.343752410287,0.25201678281704587,0.21198866017226167,100.19645805000557,-0.016894154918346338,121.46867071993792,0
870,1.229606178338064,1.2522884561802057,731.6421099869892,0.2112227536300047,0.22619474859883482,110.74988525450053,0.10380805948677763,172.31953771361987,1
880,1.1375574713552132,1.0709642605736283,897.0340314172882,0.15230923375369626,0.3211993934542051,82.47786074315951,-0.11760472632461072,169.48681192576925,1
890,1.3872127425763265,1.4854464678037218,946.6309481800677,0.23743890852063948,0.36988928124514714,103.07231678553023,0.08371845085630725,144.7877693402624,0
900,0.9722149251619493,0.918549265438638,814.1260022522687,0.1879652308769413,0.20899936424708487,84.76841771362294,-0.19154007066023349,126.86354279195916,1
910,0.6195942459383017,0.7081406007653268,932.6835552775982,0.21753813692143353,0.34683025180832927,81.45844203302474,-0.0324268088064216,127.2748359930433,1
920,1.213244787222995,1.2431741170214687,989.3429961702435,0.2936371522625726,0.26826372919001046,82.1097580864887,0.11034602608111477,193.8578997588183,0
930,1.2607850486168974,1.2823324075926692,761.1299377383067,0.2098552976463652,0.2957056739839045,113.36656432833766,-0.06450681769022745,175.14234569806698,0
940,1.0612771975694963,1.063814899772798,856.9988893584224,0.275970240999664,0.38577190996911315,84.71889934512247,0.02549484057815979,130.16820910165924,1
950,1.270967179954561,1.2171011422981128,786.1413874253726,0.17828109086238766,0.2663943009471691,81.80605457649168,-0.11800830686963569,148.5378535447125,0
960,0.9937955963643907,0.9291012027654924,937.8563257101519,0.2508690747037543,0.29306738678789723,97.51599548571649,0.09679815645046891,167.39863951212772,1
970,1.0227328293819942,0.9668300711960293,873.2780097643472,0.2965510431658415,0.20273648295213623,113.75973887768099,-0.17908835869249617,186.84573640725188,0
980,0.9275410183585496,0.8648286707874006,890.3747252650911,0.1652839651309405,0.21631974400096768,90.49633505957208,0.14101705795020014,123.49287429704069,0
990,0.5254191267440952,0.5813360214574459,939.3742478847682,0.1512479913340788,0.25171831822695684,96.86850470103666,-0.12072144543133274,138.93065051760072,0
1000,0.6078914269933045,0.5779164788266504,818.7911417987365,0.21503741889489214,0.20557044816421488,81.59690130255005,0.1497592126833323,191.1799192236304,0
1010,0.5314291856867343,0.44299772099941354,974.5270205221129,0.16389382245770506,0.3262750652096502,97.96314056539504,-0.058988303479793086,120.73324401470532,1
1020,1.1364104112637805,1.2302309372919429,859.908660173842,0.2622576524514347,0.2852796713603245,103.10452322548535,0.08907342978979466,136.111928223511,1
1030,0.8143559810763267,0.8911131580690118,747.3864468506044,0.2871822995772838,0.3096290405456044,102.8362821500858,-0.07230988088552462,196.72193407783726,0
1040,1.0085706911647028,1.0941211478037454,908.7697354506407,0.2151031459063138,0.23492943717926593,93.2970676869746,0.16236466849385905,169.0721477217737,0
1050,1.4075664739260931,1.5065480384553802,937.9784051314764,0.18880674632331612,0.2591864058873232,92.62132722652542,-0.14934514979265026,140.9337093310005,1
1060,0.7492922291488749,0.6840712789927724,795.0285031202579,0.21516049785099145,0.33276489497054507,84.26494475746392,-0.12859208429096053,125.3592875516678,0
1070,0.9103829230356297,0.8896313268161615,957.1537770996258,0.25851717267750013,0.39306054472608,94.67193282585073,-0.0027879499364790727,122.25530723577778,0
1080,1.2555511385430487,1.307198833683867,971.8429764297299,0.15135812423705564,0.21008335472044184,83.97978675491859,-0.16722462438474156,139.5796063709542,0
1090,0.7287981654916225,0.7680022891023809,783.0713462133426,0.23841809842270456,0.37807686417105324,110.66383778848206,-0.12160792611929523,190.51886556711284,1
1100,0.576979909828793,0.507759091096764,995.0564418145666,0.24199375273310686,0.3153762402622417,118.65097190992743,0.17750655288480577,153.27309234380076,1
1110,0.789751452913768,0.8529180779118916,742.2134584146276,0.24565323703439032,0.31278391335112476,118.80297826666828,0.19059586445915488,177.62666953327943,0
1120,0.6612212872540044,0.6061094016213365,760.604700520747,0.18630331199713157,0.3000557070415521,114.60284397501576,-0.04949626826783121,193.46280283039664,0
1130,1.429697652342573,1.3744611753070977,755.2674517714079,0.257107908506719,0.21387881718083668,104.03168597358476,0.16931440840557427,152.64323692822532,1
1140,1.308120379564417,1.3155152641430996,968.196913002361,0.16370872294976646,0.21797537034723213,108.0346278897552,0.017929870269372705,135.30218968299175,0
1150,1.1334037565104236,1.151991743478764,896.2877656974886,0.17989055047002012,0.32018240113181723,91.40823210721656,-0.09210301365049318,161.36943446855355,0
1160,1.3714605901877177,1.3874778317552798,745.6312849666818,0.2816205069981723,0.2681917142871117,105.23081680690483,0.08095948843223943,192.64669496478837,0
1170,1.3036720768991144,1.2219694443786653,832.0970255105046,0.26080847260898493,0.3834536133155362,98.2259819775951,0.06356072262994289,184.34995313101604,1
1180,0.6865700588860358,0.7620622314121119,884.5894075209405,0.1520618331017018,0.28131810747189445,99.2806935910773,0.19565012764349338,125.2663874690523,0
1190,1.3925589984899778,1.345679007007719,725.039225496815,0.18725643905547001,0.22865629174052823,110.31106241500632,-0.09398108503628669,175.40582400620656,0
1200,1.0393422419156506,0.9652452261722114,964.7249105222016,0.18216097244897467,0.3429437667004072,91.27673422389006,0.06882380106469416,165.7518017967163,0
1210,1.3074401551640626,1.385189771137858,941.0810606324605,0.19062094920554587,0.258670684288202,92.7215844677808,-0.17919049798822126,192.59705410771403,0
1220,1.3960912999234933,1.487221599569444,851.5620320729914,0.18713396554198294,0.3050940614711787,116.98567164514546,-0.15454158452131225,129.7985133480238,0
1230,0.8180034749718639,0.890428998424954,990.1379845777511,0.15937894436142686,0.339566557101034,82.2489717940389,-0.1984326500195627,162.72288905637254,0
1240,0.6100519245276768,0.6719551394726524,825.32829378253,0.21884107748952303,0.3800528222404141,99.42537193653362,0.19978427242386926,190.3570154809514,0
1250,0.7279351625419417,0.758983558669746,995.2330957109493,0.2599100212179248,0.3584382389603352,116.51203201631446,0.12090947885899112,152.80190293933944,0
1260,0.9271077886262563,0.9372792627480842,900.3759996410881,0.24100975870761546,0.33527221357454484,104.41452031272628,0.1146892058934163,158.55959341862936,0
1270,1.3180147659224932,1.2354121179047752,890.4013819761824,0.25093075028971196,0.33592663647902876,101.85628296848529,0.0038904301152718757,125.63685421335666,0
1280,1.3607305832563434,1.342421225870483,749.7864685887355,0.16217237678043586,0.3891849288064173,89.9897671691742,-0.07997316683782403,142.25149123591285,1
1290,0.5069521305311907,0.4814898339336535,964.5783274913931,0.2927236065265181,0.25916481949930725,93.73101956257793,-0.13949428621492965,145.9605319335158,1
1300,1.0107473025775657,0.9626980593296309,828.2469063761846,0.27577377507645373,0.2002224188392375,114.08193663218772,-0.08613010446141454,195.60979589959095,0
1310,0.917411003148779,0.962095025886496,748.6700217347438,0.2707635477743494,0.25439091187963975,102.36872527073832,-0.04961151122834434,142.61338884329274,1
1320,0.7221078104707302,0.7212829574864844,703.7822559927278,0.27344757075626513,0.2435782759253488,100.5896877502712,0.10252403879211763,156.86949882157217,0
1330,0.6198653673336828,0.5360746105152123,867.9267050915148,0.2899065762199142,0.33236691702279964,83.98318854160115,0.015864715561260956,173.70435388514238,1
1340,0.837615171403628,0.7816518117935902,858.2198866368029,0.23163809491705464,0.3267423199531058,80.64112625820492,-0.16900654937780693,132.97466979263018,0
1350,1.4429097039125192,1.4795614566444384,915.8060867107475,0.18004230268014387,0.3186922765409448,118.54740754748197,-0.1927883964164351,158.91539097134995,0
1360,0.8232029320207552,0.7384291039188152,967.0774159053406,0.24251754117788116,0.20324868864189075,95.07944669147366,-0.15906712818637475,179.08312315807262,0
1370,1.0187906217433662,1.0890320045531199,723.8219753929088,0.26143222405019084,0.3457556108901295,104.12852248398018,-0.035800514521048266,189.3484170421653,0
1380,1.2030189588951778,1.2020482642979726,919.4489471021087,0.2606876090031038,0.2647060824970983,83.1886029274914,0.1732771668196073,170.10074197299414,1
1390,0.863629602379294,0.8597469178446235,756.2235832292747,0.228217353625032,0.33301119780132626,107.32457142892187,0.05496099248368863,173.52428122535582,0
1400,1.4717820827209607,1.4902636396528641,957.4531159471492,0.1602688079000367,0.31131568570043067,117.30266834823843,0.12073035995020603,130.1026778067655,0
1410,1.4624472949421112,1.527383488127141,945.7190541584969,0.20566694076451916,0.2685461850855815,103.02661011989679,-0.01345016219818057,195.66211977970778,0
1420,0.7517822958253642,0.7213441374058027,862.2381264956633,0.2881149912695036,0.22691525342082156,85.04461289501643,-0.05533356672198289,130.6059261987586,1
1430,0.9972485058923855,1.0328517364041983,913.0728395869935,0.23766733646361388,0.2188837795320962,103.26886109893907,-0.15663985091335092,181.97383497454388,0
1440,0.8008783098167697,0.8140247026159279,794.3050339551245,0.230749791488357,0.36630366662244473,110.6538885241861,0.15037320887448197,141.1853057422655,0
1450,0.7848404943774676,0.7382461484113518,841.3503696798443,0.19032802715732902,0.3836795084163116,96.25666146296075,0.11326401161116112,194.68745149610012,1
1460,0.5368869473545328,0.6126129446255644,946.4910693131415,0.20526733798748684,0.3299576093528599,115.19350991765872,-0.13275276096090996,177.59676314955837,0
1470,1.1095643339798968,1.1690495383012824,837.7795591519641,0.2843019133729754,0.22068682297209669,105.94731813429458,0.00490422555050421,180.3050970382695,0
1480,1.0026790232288616,1.0343693901605466,807.3394795976326,0.24996945712902535,0.28040544337764817,115.9699567315681,-0.005050076831502048,137.52473384479066,1
1490,0.5514787512499894,0.6215950970688378,848.26373417509,0.26810805401284993,0.34578784002103147,104.9402124498935,0.05003662107461143,155.44319813081287,0
1500,0.7786464642366114,0.8521053044285719,948.4747757311656,0.21815181346014828,0.35596417680201364,85.25151888019298,0.1784747575965045,169.42505556714292,0
1510,1.4082658859666537,1.4499384813096607,800.5624142112619,0.2445370829184237,0.22364372445821773,92.38766844420756,0.031908576704991864,181.59788945652807,0
1520,0.7395618906669724,0.8069645563397069,752.1284779407231,0.18725754131148112,0.2000061437690765,88.07179793009828,0.01608690671144744,128.31675007299117,1
1530,0.6448948720912231,0.6843891644250798,913.6042060992343,0.2558191245425229,0.342427409176121,116.3530599086745,-0.17987082682613442,196.98922531636225,0
1540,0.989452760277563,1.025480914629623,947.7934638124245,0.2141402000555006,0.27131923519724116,110.4160026914993,-0.17483700959279044,191.21765364436447,1
1550,1.4856504541106008,1.5093727297536377,730.19124355706,0.21638182722221183,0.2508962663236521,107.05593475640023,-0.12506128346928447,141.62788723964675,1
1560,0.7420552715115004,0.7925985994230287,771.9622338267834,0.24739834868653224,0.2025794939579051,92.03865278526487,-0.1870116913233007,185.82081944258655,0
1570,1.1721355474058786,1.1038565684644932,742.5915969282981,0.290442093220339,0.30805988135229995,87.36179088200853,0.09734115822800493,161.4659138431859,1
1580,1.2616196153287176,1.3377937671685032,804.38242347465,0.15960095199129312,0.37023014708519636,110.25804351955648,0.08933212159758525,156.9445185249615,0
1590,0.7376375439923997,0.8120062495414461,835.1052936716238,0.27371148560205116,0.3915263292545176,98.96631783516318,-0.14557750622734283,145.15472846491244,0
1600,1.2282163486118596,1.1340658052187713,924.647901088992,0.19385746656182895,0.31314899012265784,89.03158208602517,0.13443156031811238,166.4774869305274,1
1610,0.8677831327192532,0.9329464828322058,895.3442754645023,0.21658791817595668,0.3028922655479789,104.664879126611,-0.13808558606155522,178.3911294162878,1
1620,1.1323058305935794,1.0580798040882684,886.2785702435293,0.15328699931625134,0.21701127709784823,81.61335408553808,-0.07952976520105648,152.87463239702066,0
1630,1.1335297107608948,1.1005534816127232,805.7124839828963,0.19515691167514695,0.30977456030851996,93.04681016513014,-0.10040924033545401,170.33753544066337,0
1640,1.0357746840747586,1.0844763353330802,952.434265925428,0.22539468639451957,0.27599581579307897,98.74227978364539,-0.051077160570780905,175.94503369242432,0
1650,0.5902897700544083,0.5224417492640699,841.3861502194494,0.15842641160211585,0.3214270561767154,85.91833336437624,-0.09813449364401526,176.88974536122288,0
1660,1.335302495589238,1.3988959004130506,993.7314814045463,0.22366435940747476,0.2777452695753094,119.38617910363358,-0.004419629424619181,124.15728785049441,0
1670,0.8207800649717358,0.8872069005632842,890.2426414887211,0.2890665943287641,0.24805982469007337,88.36389458358457,-0.03703684745812583,188.77982445480535,0
1680,0.6865185103998542,0.6880120571520215,737.8794224693509,0.16580898271617078,0.21899305504567532,85.21412520173062,0.1946277963117306,156.66026518120384,0
1690,0.5407751415547639,0.44205231589813065,902.8532686226301,0.2646661092113256,0.2629836889177792,88.14139495547586,-0.17762945994870974,140.99328653569717,0
1700,1.090892943188242,1.0483005698232244,797.5312046295097,0.2114506580063989,0.21932896685755046,110.76244532638897,-0.14312744944505937,139.34116059837453,0
1710,1.1775643618422824,1.200949745517431,905.8981590058293,0.2482760571786507,0.2353793901647968,97.02022637087371,-0.178869642436559,158.64112902751603,1
1720,0.5165878289278562,0.6128250645333408,720.8923444487217,0.1890354896977844,0.3974672317159092,102.61663759010152,0.050336477992950324,190.94652315751674,1
1730,1.012093058299281,1.0384557637026148,752.4644311527878,0.17392383938120373,0.28882071138132376,80.84036627945443,-0.17819628903451218,150.26780653461176,0
1740,0.726495775197938,0.6784564914107699,956.7211776717359,0.17406939214068395,0.3063743533010033,81.37725234293258,0.13457589495044936,179.97805974268346,0
1750,1.14517279040945,1.1719739310293722,768.1538671070545,0.1605737918464717,0.37472370574744307,97.83302199308065,0.004775452272771125,127.74549847897748,0
1760,0.6743664290049914,0.6823635049481626,951.112337572882,0.17784700573518644,0.3991137800981376,112.66620972806494,0.010803049832613487,158.08453617208494,0
1770,1.190937738102466,1.2469068171326947,783.7828265363231,0.24963290774834523,0.3165428898689363,115.40955514830262,0.024637803084877674,199.33489123141885,0
1780,0.8867353463005374,0.8081314740659291,892.8645730176123,0.2822535917765262,0.36249476420883436,83.46826270382562,-0.1316745174775157,181.63502422338695,1
1790,1.4367299887367344,1.48893556923714,908.2451720529493,0.27211885283867426,0.26538820486733505,101.53452408404091,-0.12092387875420499,136.84227907524905,0
1800,0.6375209441459933,0.6457742598812153,853.7964259435159,0.2527701464811726,0.26114879148945824,116.52918745117083,-0.07247307085079813,160.11531789583285,0
1810,0.8410663510502585,0.9336647518220574,791.5932030090194,0.1665647795116654,0.28054074419891206,95.51891017591545,0.03739856632874056,138.68998109188533,0
1820,0.6134735212405891,0.5818479544483263,763.7933129113288,0.19337811694439247,0.33450145253472985,113.18263325713474,-0.1159528896239142,152.76487418100075,0
1830,1.4246936182785628,1.4512179969053525,709.9568063687278,0.19647103129837035,0.33643833785101973,85.34782617597745,-0.1534673091466955,182.40672189879717,0
1840,1.377339353380981,1.4637449744829845,791.1839203722171,0.18749354195964318,0.2630478869298902,117.41577958671195,0.1880467545673729,181.6979852232323,1
1850,0.7579416277151556,0.6784435733132914,895.9488371593849,0.22725084895645847,0.22664198482732575,110.05693270125211,-0.19120727407615085,138.2480302321908,0
1860,1.159984046034179,1.2474297434814692,981.4914455345448,0.23033307223195087,0.32647925129310174,117.65337571147606,0.12107896213440866,193.77786545238882,0
1870,1.3172222002012157,1.3547993446613784,961.3613446789157,0.2035328962756665,0.22566517243775291,107.06468934210025,0.11521405983000882,167.40545462118615,0
1880,1.0552008115994624,0.9687682234204968,929.8194329605908,0.20306837381046539,0.31569850164586605,94.53615727997708,-0.08111435446196161,150.39394327696115,1
1890,1.0296505783560064,0.9898432917453697,936.5342029759896,0.2742833396859122,0.3386844256112618,117.5272469009889,-0.14574935359707464,160.15484646246887,0
1900,0.7418522909004517,0.783486708629508,899.4954710427986,0.26839392724795286,0.34012229927889037,91.02267105236714,-0.14174854131783066,168.4057002750195,0
1910,0.5931027678058992,0.5065728880996535,778.0860572698009,0.19616937475211182,0.35069442213191937,93.2869008824693,0.07897264689487699,164.79124254766282,1
1920,1.3972157579533269,1.4136498499885815,972.1585092117489,0.2870682665809889,0.37457188431313293,108.03233672006961,0.057122636434469465,158.91240284289427,0
1930,1.4004180571633305,1.3695946685539218,901.2196935717502,0.2929222525503759,0.2999917983929577,110.61265198101545,0.1130982697005547,160.394624327152,0
1940,1.133101457273268,1.1572845608267635,868.132189294132,0.19901138130450613,0.34604983790591426,117.17613935396615,0.17499246895964188,134.1129528342309,0
1950,0.8390297910487007,0.7481781978112032,733.2968407640443,0.20316374231895823,0.3238345470731674,88.19209636224838,0.0767709453066368,185.01863234437434,0
1960,0.8492095746126609,0.9235169358431361,834.1166631419276,0.22584512301329382,0.23732798795953652,111.91992140876896,-0.13765938537942263,163.34082559528122,0
1970,1.2259556788702395,1.3206534727057189,838.1074813605778,0.29116812188005103,0.20513792897388164,109.54184213587854,-0.10262295329383574,130.48638893637624,0
1980,1.397110259952577,1.4908858310097153,959.369082856801,0.2814479149713467,0.2569082771353868,82.55178225014392,0.13687749234924584,181.29256812662223,0
1990,1.3870864242651173,1.4370167906137024,863.9944660563365,0.16538519438753846,0.2886067412675239,95.48892564840828,-0.11627756966631658,194.59551827018805,0
2000,1.2798755458576239,1.2058927938837503,814.1201646911229,0.2089096114907124,0.3234211888857313,91.31061828240394,-0.17099107321820745,195.78455193895695,0
2010,1.1420316461542876,1.1936842853400922,993.0400985531978,0.23300567846246578,0.3699918661006411,92.17961697416122,0.08131202161690021,149.5214185928938,0
2020,0.5841399649950488,0.48905734828680913,733.2161779978946,0.22546987088273102,0.23924914334123315,119.31787518218803,-0.038989457803943195,130.84134988486034,0
2030,0.6616287140946138,0.5660534244004132,826.7645284935834,0.1790794601905339,0.22510995797969544,105.71109653919711,0.16801602101836144,161.47197013064522,1
2040,1.3985541885270791,1.3632762323569874,712.6074025514216,0.2788225156752232,0.3926959894948655,108.70704631173999,0.060102028437464594,129.00873834793765,0
2050,1.10642905965959,1.1041576977405232,921.9712362300791,0.25154111744952556,0.22160891187528142,119.06470549260037,-0.16383240888333572,194.71899348100936,0
2060,0.5091970516166296,0.5632785351781883,975.4229656597452,0.27568625622777054,0.29569821402143787,95.08807129830555,0.17914262690146432,134.68637018841167,0
2070,0.6014715428660321,0.6381306181873332,784.0111988651469,0.2788146419024208,0.3171127457586604,112.07360673811223,-0.09657709454390165,140.2212687960931,0
2080,1.1635017691080558,1.1526823103834054,957.5025030397362,0.26225337804986093,0.3082748841814877,97.38123853217982,-0.0651150038374857,152.53092215079764,0
2090,0.5050615838462187,0.4597869171025519,787.6654691385693,0.2158815901874576,0.21720643140658866,114.78134687259919,-0.03909583452658319,150.65315748473006,0
2100,0.6608080514174987,0.7602329514490409,973.2310484931745,0.24158201325231365,0.21140538280072388,87.22630165245212,-0.17951028143827472,183.57303139183114,0
2110,1.0487337893665862,1.0339700498137807,926.1885710790352,0.17405481091796146,0.22109668549220715,117.90744708257118,-0.0013938311077580645,156.50534564407698,0
2120,1.1918951976926933,1.1821726025586283,941.4720330524316,0.2510468126212361,0.31711753677452253,88.75086833643519,-0.1506726035698831,133.66146080026695,1
2130,1.1519612595026005,1.0846860237409344,705.4019666801363,0.17688798836089212,0.30886897752686426,93.04882027923726,-0.03961186932465929,141.37679163888592,0
2140,0.7242693094605598,0.7832312192105457,988.8431071222078,0.2540924385765235,0.24674815840734887,110.24768936427122,-0.059716084803166286,160.72907081500176,0
2150,1.2121792213475358,1.2509156665038335,918.0012976210969,0.18443972411309528,0.3275548283691183,95.75020566261627,0.10913603337060135,131.7963133940908,0
2160,0.7372490874968001,0.6814030100545522,791.42532861584,0.167632695022533,0.3640135004111299,104.32845507065787,0.12126820465309246,168.93245405168113,0
2170,0.8253996981592677,0.7418759072824362,948.8183994576541,0.17479267352144362,0.20831579196931876,97.78294004277714,-0.1386348470443648,165.25978452409169,0
2180,1.2464914051180243,1.2825912655329668,784.456359524479,0.15029882028286054,0.2996259887096085,109.69479748359127,-0.053379525048309534,177.17618531058062,0
2190,1.1496328990472147,1.1805351419034418,961.8261518698384,0.2578109426780295,0.33786208242053806,89.13325009474443,-0.05065873558726733,195.01636923034943,0
2200,1.349223410494178,1.3038753158938199,733.7741171235812,0.25986015735875684,0.25046238541393745,82.33831948947508,-0.139435822425566,192.98036488809245,1
2210,1.1576128923003433,1.2477856047504252,911.1057932382387,0.2272400024869889,0.2615541810586298,91.99717589892265,0.1193814020204762,195.6860494455065,1
2220,1.0683086033354716,0.9985201816916517,862.2095429934731,0.17420442015830756,0.32272758059787676,98.97234659473722,0.08289133133416932,139.57724776189607,0
2230,0.5936747678280925,0.5801417280366129,728.9603410586323,0.16253315062660345,0.3795870586887474,86.72080208770714,-0.12384728548118612,130.52522453114838,0
2240,0.8677158030594335,0.9564389870929533,772.5681484776517,0.15286934496559304,0.3619848840605799,94.19189158625555,-0.05331123656248038,144.18213603971589,1
2250,0.7652023676817254,0.7491478310669499,703.7212108831944,0.1748622265447831,0.3166260438199167,95.99932073174274,-0.15767799005739433,191.60681382130517,0
2260,0.7439896433790836,0.7716948329119007,840.6303896393517,0.283628330247472,0.34604434355144986,82.29567374753094,0.051282638837217565,197.76427796987906,0
2270,1.4730105547524457,1.4525294343450046,790.3795782280001,0.18623052625525227,0.27296449404155976,103.33228992736818,-0.15145123018055215,188.74599608563807,0
2280,0.8930977246667604,0.8479407651364944,879.5072452893277,0.20314069908258234,0.32819310561975157,115.3737371188515,0.19437366744996715,128.8014176902035,0
2290,1.3920465551771133,1.4888420847690789,789.1713423125851,0.16580182267219998,0.29323631822551144,86.06971651812209,0.11227282987514492,195.79423984478345,0
2300,1.131138625997263,1.1130054272602714,789.9757334520954,0.18335419571222553,0.2379872272915122,103.91232053606056,-0.043904580166401974,153.8686421880629,0
2310,1.2948113035416484,1.3736311442774753,922.957959619481,0.22788368561703076,0.3403476547754515,106.58956819643385,0.03142557291174178,120.7448232609883,0
2320,1.002637093105192,0.9486280142834093,714.4428507935061,0.24116290246434788,0.31129292746976445,96.77338721677154,0.16453672648656353,155.3914992598555,0
2330,1.076903884626359,1.0195248254313756,970.8684985575962,0.18680284712493164,0.2717243163907183,108.0439034945708,0.021639712158330437,123.68553357403741,1
2340,0.9925176938188639,0.8987445103957662,955.6791623173544,0.15865982388376756,0.38226783801572617,96.42926173964048,-0.13020060544081793,163.51023369288941,0
2350,0.6952429877980445,0.7255763528732215,900.341404967922,0.2086549303691098,0.20418682356534668,100.1854915190974,-0.04851865776753628,147.0843221949641,0
2360,1.2224521152615053,1.1961573840062576,877.9664710322153,0.18513050563895012,0.2631546302498992,80.29412178217709,0.13725794601189817,157.8747946875239,0
2370,0.7807723624408558,0.8536440124087832,967.6907494418956,0.1829330884844703,0.21137627955552932,107.66880456538755,0.05768520639584718,169.05362885944936,1
2380,0.5243159664314538,0.5189579477697652,755.5990538586143,0.2939794204070183,0.35330546324432544,106.45370715778898,0.060289753733520135,189.50408766542563,1
2390,1.145472295907168,1.2391109814901122,723.6907486572486,0.24244507288885858,0.3404214908227585,81.53603509305378,0.1467285942753957,172.9521261177543,0
2400,0.6771106794070489,0.6142157825476732,771.8530509728614,0.23353176647581436,0.26627044374726344,94.73000429580532,0.1575892229850019,154.72390947825446,0
2410,1.4404585843529143,1.5141832179440364,938.3734836100571,0.21236626552849827,0.3351325804414146,119.16127363166669,0.16791702871177455,185.5542282936292,1
2420,1.4539285770025874,1.5092479475609357,710.401080017945,0.21434165001452163,0.27918744523919,96.82946250274468,-0.16206032269873757,192.44657100585056,0
2430,1.4148643902204485,1.469048759149259,874.842050525047,0.23113575057571212,0.3512507582844869,100.07781620527368,0.017650400785240355,129.5807973145758,0
2440,0.8701587002554444,0.939115345878822,998.6312548573931,0.2544644710554161,0.2908367325473412,116.39720632638874,0.09620380848732746,162.55463820422332,0
2450,0.5154566165288674,0.5676614147174672,956.7088281512617,0.2553219144272744,0.28245594556633313,108.69047503463025,0.10277073805080555,142.76095677939554,0
2460,1.4283185625877253,1.4535626269140083,856.4337067130768,0.17575408615581742,0.3869459830976602,103.28280524496894,0.04268648078800155,123.7648958301558,0
2470,0.9281841483173143,0.8544331238537919,719.0922727859927,0.22501691281149405,0.2501758199781401,111.9121872536429,-0.13328506592653033,173.4837356091188,0
2480,1.4666548190436695,1.3731600549419198,949.4120543157129,0.21179371425511528,0.2240894679993131,114.57465065823894,0.11896822157666576,189.02166219673805,0
2490,1.4636199770892528,1.5477895466523903,879.6935524531632,0.28057904494040764,0.3169086226518917,98.27552286949067,0.08804453340597829,133.03221235819152,1
2500,1.35300945546736,1.3763395183715075,734.47989911787,0.24471283818275646,0.3938643624568358,99.00433459727341,-0.1655456913803855,184.99309260991203,1
2510,0.7944488920695857,0.853756350264821,728.1571854470069,0.22987560996239725,0.27556784274543733,95.44203742607343,-0.014476070130249485,188.27165868295532,1
2520,0.8850977286019253,0.8814021989044353,972.8880458309777,0.1673091963268376,0.2124073527257563,118.66824560073843,-0.13040904019127858,193.1472354133187,1
2530,1.351136671516857,1.2745983093093358,900.7600788814235,0.2408456833985117,0.2678610534619135,107.88665017161401,-0.06500918171481126,141.2228071268842,0
2540,0.8169220051562777,0.7419591635967877,948.7860397950267,0.167580585852035,0.3011863308639117,83.32892264832289,-0.19276756311772583,192.31624521519115,0
2550,0.6694927466860925,0.7066058041318868,963.6936700846802,0.2005809863348628,0.23238460132644276,114.51838493252075,-0.039868052635696705,145.6530203789146,0
2560,1.0568012624583503,1.0428624414382428,871.5317056144967,0.17142629472214976,0.3316204436112984,99.22239763345073,0.01995076846248417,164.1870410764402,1
2570,1.436154774160781,1.3762597195008484,855.2339055265124,0.2538110470536553,0.39954987780204015,82.7501562568995,0.04783303713083473,124.04059766658257,0
2580,1.196029796674973,1.1943487060232603,829.128223096297,0.1809378170754229,0.2903478951962888,101.98869020653244,0.06539613805148403,123.51048706949949,1
2590,1.070061170089365,0.9829029575043917,795.0839763373358,0.2087789059782039,0.27094571134604256,96.68657115902809,0.134516525240984,177.62985701857622,0
2600,0.5971764937707685,0.6135707741536482,830.3787882576136,0.2843512166428168,0.2801408333668933,115.109976194505,-0.113814837089708,155.55839823822328,1
2610,1.1150072266991697,1.0688059075861893,932.1638967190469,0.18064745750984554,0.22302923567904023,88.1597841443755,-0.15180727102461283,140.5033900295374,0
2620,1.4900538501042633,1.5495656702317009,880.5770293045395,0.22617075959381686,0.37665472028524477,113.05858437968732,0.1406148687591703,135.23307968199282,0
2630,0.640084015236524,0.6021564070212387,967.7569869864539,0.2128907491749033,0.2829651311042704,102.3075476474181,-0.13735487404294006,173.59627926873745,1
2640,1.0183296523637368,1.0093736821800972,833.0140043137563,0.15271860615685945,0.2774548822849683,82.18441212853877,0.18990403253447813,120.03212352202719,0
2650,1.3773730719279556,1.2796971799095758,882.1268736156262,0.26891371703592193,0.3319380545860949,118.87381205301938,0.13701529175945482,184.47129353574834,1
2660,1.2407686177542043,1.1552579953131161,889.3922659275966,0.16035688594718994,0.2884066841862247,100.50460976412799,0.00035064235583964765,126.33996849039431,0
2670,1.197015740995268,1.175514452276605,877.5091486918976,0.22113825314654303,0.3296466937615692,91.6350741692633,0.1925685699688101,135.31916919264955,0
2680,1.2024840839871094,1.198471850930534,910.7901319256549,0.23410174424084249,0.2122892580261575,98.77627367957032,-0.16104930835679832,150.89891162392718,0
2690,0.8594911512197552,0.879495260843616,771.2300405124419,0.24426396849218807,0.3627446687444455,114.31431134069956,-0.07877369552995934,158.7886991772883,0
2700,0.7935918442644934,0.751924360006354,853.7091332637372,0.2532947443961813,0.38810079057588054,92.19612497540254,0.05528976601624458,148.39960926511534,0
2710,1.3093611554785136,1.3483575327038222,731.2674408425044,0.18799085752840725,0.3297530772318772,87.70705585946801,-0.059997252610728496,145.65697319874351,0
2720,1.3101133946791808,1.3821378741170216,815.3533982934438,0.1514968164987674,0.39091318577176215,85.16284987723526,0.17134902079231673,197.11328096585507,0
2730,1.3670723185801037,1.4230425163587737,846.3001205863793,0.25851654935323676,0.23028646287399268,91.91437593560845,-0.17374956472887298,171.32637449947154,0
2740,1.4132405525564713,1.3211643176261427,895.6672778636417,0.2303484899021368,0.2954832378960708,111.20192348160174,0.019764732824385817,121.87463642939106,0
2750,1.0113423988609378,1.0074437883125036,985.159315775861,0.2754176554810873,0.32036134678908945,98.86505460781046,0.03634650695804581,154.41407267554507,0
2760,1.0015162946871996,0.9225023303708346,880.1953199645068,0.2732082544351041,0.3163473294842374,89.0992641477416,0.06109124951088962,190.00069597951762,1
2770,1.2982951789667752,1.2467041821392806,923.078174852968,0.2764989251681825,0.28029235581780865,86.64739998438996,-0.09773351066727423,144.11649491285343,0
2780,1.1499639307777652,1.2472964494311944,851.8798178485608,0.222764198996931,0.2676168818732523,93.30917906041516,-0.05417342899205421,127.56450758195106,0
2790,1.2019668772577035,1.1304659858380062,890.2312094128994,0.20004425937552983,0.22536480451008378,117.59697491542835,0.13747221186599107,180.67078172719343,0
2800,1.295792669436101,1.2955703001263723,721.279664840132,0.2687337303887055,0.27834849011245566,93.72106850360097,-0.12202289241193608,168.4811065548865,0
2810,1.3900053418175662,1.41363648868119,776.3174742525541,0.21769411695438823,0.23253216302109703,119.5249630381854,0.1307471388693448,165.6250006261203,0
2820,0.8379951568515358,0.8784881509603566,808.5559279615416,0.17751632946051518,0.34687313529844366,99.40921823061424,0.025062169161096964,124.28612476859263,1
2830,0.875582952639944,0.8875126893373269,841.748006501954,0.27824610293422114,0.241766187098918,87.16655673160604,0.10487500447763287,131.2399207836414,1
2840,0.593981939840869,0.4959361093247057,713.6946236507151,0.2823839815158521,0.2117130610569068,115.64560367174037,0.08544294650538864,169.80395169704911,0
2850,1.078280140996174,1.0435724026449724,742.0072292659953,0.21994646342102553,0.31047322756344686,98.41421492539308,-0.1169954018460484,136.62590731670687,0
2860,0.5359422737967421,0.5394846024736843,783.0442923373918,0.1613549590964681,0.31904594654388035,108.38685374018098,0.027525094573549153,160.32560637987393,1
2870,0.9655980181324602,0.8831713179614268,991.4598072703152,0.20817391348753966,0.37438261225610114,119.34846332836608,0.14708926112203696,163.59053488235148,0
2880,1.0426446347075766,1.0127700209494128,799.4041021309152,0.2705306489193905,0.3153963224835364,82.00701401279896,-0.027153505279228274,142.68057522167516,0
2890,0.7865412521282844,0.6931818738865577,844.6123174336248,0.28526610428193433,0.26909617074468917,83.86778239150269,0.18663630808932669,195.87401244331943,0
2900,1.0908332605690108,1.0065489600000148,758.8293138215179,0.18052091137463938,0.36060237630526415,108.81826965851025,-0.019113959959312782,187.397128546846,0
2910,0.5305002499390494,0.5098849051793687,883.2340213227305,0.16004604180379073,0.30805577863748423,91.27300013181888,-0.14288574533284615,177.78988061062387,1
2920,0.5373481887492144,0.46389133955782647,784.2049646547923,0.2816025679699258,0.21585605692623835,87.37205587800396,-0.04422612796893072,126.23950931275273,0
2930,1.3226005606596583,1.3361087303119699,762.097773531528,0.20841074084683128,0.31317011206264933,81.57447519278918,0.18068096255621485,128.49040154472155,0
2940,0.8601906414112629,0.898083635238716,854.9717885337938,0.23126414464013448,0.3816037090843325,80.87386847944808,-0.07211166026405832,159.42250766919645,0
2950,0.6270605126518848,0.6871778524737013,701.6517397481263,0.2952098718076138,0.2792625250996441,110.97942412479163,0.14723926394682513,132.85706793527885,1
2960,1.0222432600548044,0.9622733089037664,702.2992097947676,0.15998470918713342,0.25926516037996006,85.377337094782,0.15250027267275595,198.26123708235792,1
2970,1.2699935530986108,1.2034900695504247,765.7206427305573,0.24724770111781433,0.22869389140360402,98.70882463884604,-0.05992539026721558,132.68161872219275,0
2980,0.7158210274968432,0.6367345955637232,711.0164087502463,0.16111581338623004,0.23028910438707148,104.23587260717932,-0.16669693677974717,158.99742683711793,0
2990,1.1228904758190001,1.1501765257277274,732.4077262392074,0.20632033926997506,0.2865542968683638,97.13407202275386,0.08982316366352727,149.12968454732044,0
3000,0.585347464993768,0.6266426102911482,801.6581948016255,0.270572181779017,0.31913596483230594,81.08426609344933,-0.0753950803944056,171.15091371632784,1
3010,0.5516817211686077,0.4579989501337361,940.7757038739438,0.21502083491334517,0.21612308103392036,111.34006010351635,0.11316944570302895,130.322912711154,1
3020,1.0313546315681479,1.118597080816886,871.6145930107903,0.29957735308544253,0.38791371780503314,80.42052898166614,-0.022938060695826767,154.42531424339126,0
3030,1.0406351216101064,0.9510293783404009,853.8003177869249,0.23385889274199032,0.3510267234890392,110.47559577509936,-0.005893303062951383,141.9764026245715,1
3040,1.1374299014982066,1.1456891685584207,788.0466469624365,0.19817432289539302,0.31732478365673256,115.73217975152491,0.11116376269941475,191.02012197373506,0
3050,1.2260913337226615,1.2679034376128449,979.5261158298449,0.18301669888571295,0.3656877341877982,97.3135968422869,-0.047054667575348846,123.24685697077561,0
3060,1.4758520794625345,1.5500459042117516,819.1045123711575,0.20257808014292428,0.21603735136242266,101.42169892391193,-0.022749061870834197,193.09819952051674,0
3070,1.0163003483011952,1.0591177347276808,726.1278300387314,0.20587999106393262,0.2953677755466249,99.07933570470615,-0.049523812492151154,186.63953108424005,0
3080,0.822956472941246,0.8833020895552044,885.1199548353404,0.16030705165859413,0.3260186253723327,95.56834474493755,-0.05306379388908802,143.80565731526525,0
3090,1.2951861947687036,1.2630762332772647,734.1515180429805,0.20543612991401597,0.36573058122365787,115.49698141481441,0.010378630760583762,183.14325237416838,0
3100,0.7708322512620742,0.8337972740113767,803.5669428405076,0.21963577796088374,0.35669391200985356,115.75734042679963,0.1235197778004603,122.4970848270998,0
3110,0.9389714207056361,0.8549943899825712,852.2235816153427,0.2584106628358207,0.25541384994267996,93.43265458566138,-0.05529267523097367,197.3492440234715,0
3120,0.578456381342266,0.6574197125543715,962.2667574055528,0.24850942270824117,0.38817603391184086,104.60279016058792,0.009701888215094684,162.12759540718315,0
3130,0.5253507434154575,0.5348692186462047,848.0639741020356,0.2563148482843731,0.2248691682861741,117.07630248583456,0.06829093017704035,144.26248208523563,0
3140,1.462648414677925,1.5261079686704238,910.6776298094993,0.15125455228152856,0.37502672372423046,118.48233995765406,-0.092224221478538,149.00665700757418,0
3150,1.3359801205122057,1.3264437774158657,997.8450516997211,0.1826501099370804,0.3941880499209237,100.3583616168819,-0.08899087803904299,125.3124282768398,0
3160,1.195974206093698,1.224689745133003,739.4467359693945,0.24925264325997848,0.23543070464452512,98.11299221137307,0.17336525080938192,199.14796112336313,0
3170,0.9089529444142699,0.9142334766014926,782.4194576558558,0.22259840522696206,0.3444132128407571,91.14777263714103,0.08941382933243547,123.1433556120554,1
3180,0.6732943200708458,0.7196122244219121,818.3728226792939,0.1507970213502519,0.20805710375559971,118.35487492761641,0.030874670489323547,172.39256985182874,1
3190,0.656437042671086,0.5727630390772039,826.5484535616495,0.27067419636477336,0.281084565027831,85.7125721789147,0.05908802176824479,155.41887421651666,1
3200,0.7502428981645953,0.6623133149627081,823.3063225796637,0.2659214359935506,0.3032566598395348,103.19318304190901,-0.18828022275863265,195.91329745509722,0
3210,1.0492266647061204,0.9986473115081497,972.2833007669665,0.23226287444903437,0.31612904518192686,91.30201070074556,0.04724118622467874,139.67997922454362,0
3220,1.2145959227000622,1.1465048587226998,914.2097933400569,0.15996949886644082,0.3871874496497119,91.16033161391186,0.0038035492896807688,162.5669459150409,0
3230,1.1601973767177314,1.2345540900361718,882.3715642272111,0.2649772574298877,0.33445013745883895,96.19874349504754,0.018299871911774263,158.58849668662023,0
3240,0.7799338969459428,0.7237766944175517,792.8118153588346,0.23755703815970458,0.2962555902438474,119.95171743262618,-0.05623046926767317,176.22931552400811,0
3250,1.454865280663194,1.5500383318270203,947.1371152663884,0.26729399657369385,0.3619350072531779,82.19865227359288,-0.16741044091482327,125.44081855619365,0
3260,1.2378969166957685,1.2052760750499898,986.5181534454966,0.26276204885937604,0.3901065641908818,103.14167272814126,-0.12266430655517913,135.5031304018684,1
3270,1.0543540525114006,0.9907776356491405,946.3594847650679,0.27045031079367554,0.20441322973645817,83.30288632141108,0.18029788528506868,137.165185607428,0
3280,1.1117207462343521,1.169660447662848,700.4695315574419,0.2277012099606937,0.39650425445120774,86.18083319962076,-0.03652017509162642,179.0520603873352,1
3290,0.9196000624277899,0.9513416175279652,890.9204110550221,0.17104867772902724,0.21722642781273607,97.58251767091595,-0.013326737667654326,135.1310957061392,1
3300,0.7477309895011575,0.7473701327917852,715.3406144326302,0.2506736210069533,0.3628773558537523,100.41840525385766,-0.17891608405862441,165.87934111127814,0
3310,0.8559726786512616,0.8670453888387878,777.2821661001166,0.24307106775779558,0.2560669505102825,90.35169633458096,-0.18497350818240776,137.2195056400763,1
3320,1.257846110464369,1.3016864661188219,717.8574101043315,0.2613379780798631,0.22643593155077435,92.65828523497665,0.08687257881870308,188.92999600671828,0
3330,0.5143934886297559,0.46008443689601564,881.1386358848163,0.1754821509076103,0.287971127942767,83.47868081023732,0.01523786564844451,195.37483635917107,1
3340,0.6160726405069162,0.7153394237182646,905.976974047782,0.1792462799850434,0.3287913158895227,92.12879135377003,0.0034823936865066574,161.47943799537924,0
3350,0.5460026420217527,0.6409612744511094,734.3462914197715,0.28356142758289926,0.276190369004695,118.66233757522176,-0.10275018783093254,148.18471073673425,1
3360,0.5407288023189701,0.5707939395883574,815.1516649134938,0.2624966697678106,0.2109130816565398,117.78829526689927,0.09790029265196887,138.72462200139992,0
3370,1.3554605840110072,1.2953690741968362,836.8709526866626,0.2862342733050484,0.3198922279317433,93.3951316054794,-0.13270536835660324,123.98248012184351,1
3380,1.2036578593800238,1.2397035078662821,810.715906528275,0.2638072981745881,0.380480655222135,102.83415745115046,-0.12402610253559199,141.48000609579964,0
3390,0.9741738290873252,0.8886135108831603,736.3075001455579,0.23957329589854526,0.27664307318945036,116.38381564443777,-0.015715131460689813,172.33886239562543,0
3400,0.5978341606510015,0.5039646610921626,825.6843370562426,0.24811991055418103,0.2432665555261654,80.24735290563586,-0.08548805515522365,162.68935450473685,1
3410,0.9916158751168324,0.9431524528190751,925.3534143425254,0.28336918859100146,0.2885154691865631,112.42734281350367,-0.10101480750674147,195.5233022624742,1
3420,0.9734717707805657,0.965996362128429,721.3022993599766,0.23682101317679105,0.20967254220975617,117.93478211155676,0.058095057821332674,151.70218099933604,0
3430,0.6732018699100152,0.7468563709916913,724.054004224571,0.2448586986492581,0.36409751689605496,83.65302937334228,0.060388698087417814,175.50906738627157,0
3440,0.933851649237973,0.9792854631912347,806.4313875507953,0.17347150740054007,0.3652681621900374,86.45790744131685,0.12980682791997172,159.1458197980097,0
3450,0.8985047343973734,0.9470460386373696,982.5177134856775,0.2210881830174154,0.3176000926859257,118.42985211085421,-0.03291657321080965,161.00609727393692,1
3460,1.1158500980522166,1.1009487649418317,900.5717940168743,0.25745956679371484,0.2706205777876779,101.50160574561386,-0.1707659635895399,141.4219451683294,1
3470,1.1350936508676437,1.1042806493770363,903.6009870017695,0.1906414047474548,0.35995667288915667,80.56786537886894,-0.09053344603141694,156.39606214735997,1
3480,0.5453040097720445,0.519511762368965,808.5759972513595,0.18033812707868024,0.31093740495767347,90.30527995054116,0.19200218527872676,157.66279976101657,0
3490,0.8746126146264712,0.9721425273736828,878.0982373625616,0.19707402123366233,0.36518646171000324,97.99774697075438,0.038503430093080826,176.5314017399147,0
3500,1.1258599157142364,1.0338817539967329,703.0393552083231,0.18622509419892502,0.32629175851660414,107.71635644099071,0.08389483392040809,195.25119993488912,0
3510,1.0031362585800876,1.0765425578045773,890.8288139228627,0.18223689555545936,0.35688109464255946,109.32641512547198,-0.1970568681498342,146.34570219860035,1
3520,1.3564898411883224,1.372224922902801,973.986084272871,0.21372762643021304,0.319712598643552,119.81686051701824,0.007282292873008356,123.37603748650388,0
3530,1.1586936316189451,1.1464167154568632,883.7720405034457,0.2861757770825301,0.28282821364313326,91.50044797535037,-0.18498853698727877,159.70361004005116,1
3540,0.6629344270814297,0.7079859591644571,962.1095780399035,0.22605894701080775,0.3915891719852275,101.52880407473901,0.0276920848365792,163.5569065719335,0
3550,0.5705687474004298,0.5679025356853704,917.1919166398282,0.17818805712229846,0.30822276497576895,101.33294191438421,0.16830833985443017,133.47524409055322,0
3560,1.1424192782063156,1.2171039258226477,736.1675249211071,0.1615457504071311,0.3210179037081077,96.2258103778895,0.18736765220016316,180.83716850208532,0
3570,0.5265113105416218,0.6066516833438735,970.7359921857526,0.2544234217706888,0.24409752788294986,86.76647575369681,0.016221070155569672,198.79432867531932,0
3580,1.0857755812734633,1.0701197666481543,719.9331533067325,0.20741981466545817,0.3251301578854553,119.09826252735371,-0.016718077899113615,195.66197736067687,0
3590,1.4402302414249575,1.3955958008719678,860.1902417643291,0.2732746419878039,0.3143215298965888,114.13268746666344,0.17800683769939762,135.7684831058922,0
3600,1.075474177875879,1.0939442435945514,742.6411371380373,0.24892661529611554,0.236967679589405,99.93332113176949,0.06944393279867805,190.02905919206086,0
3610,0.8881699262065219,0.9706425953298601,703.5119832192712,0.2694362175812053,0.21191741947062875,104.12981690736119,-0.17404028818463624,176.35949091293477,1
3620,1.1432882184423532,1.0854206562434865,826.6102780382917,0.1907919059127673,0.32087186394295425,89.0904421423865,-0.013709768933000965,156.30772510455293,0
3630,0.9582528904915166,0.9828462072042132,788.5122122962468,0.2538538383691587,0.35273845387006414,101.75148281566987,-0.10390199261427845,163.24887954597833,0
3640,1.045616789315935,1.071928833334439,845.800148139281,0.18960929770405782,0.3046802741844017,107.79880532485903,-0.012078271420527364,187.96801399859663,0
3650,1.4414648087765252,1.4880874132595814,873.1599660203652,0.2908602719175437,0.24535452506392916,100.60668113546356,-0.017813771197455308,158.41079517106985,0
3660,0.8861026378007743,0.8124161748262262,713.1217216926842,0.24545614223000617,0.333304395338607,119.61140682339766,0.032857921125896805,149.85658952841015,1
3670,1.4611905638239142,1.504355556760332,736.9009885371237,0.1986767700263013,0.21602114532192046,104.45366624990905,-0.0572918038602995,159.45979944207886,0
3680,1.4053506419560637,1.487157146089192,867.5927189351276,0.1904267793438409,0.28836674096039094,94.83894850368677,-0.13429182021762878,166.33038432280392,1
3690,0.6957911347892964,0.6317277565633448,802.9502059517974,0.17863898776074652,0.23267335167968406,110.88608110463352,0.0014877738359825032,135.1262123022679,0
3700,0.5693613008751655,0.5168699658599409,918.7520462648345,0.25419614383405914,0.2368918102119767,86.81850046326568,0.1320811537383048,192.07261842135927,0
3710,0.6007780013774267,0.6950570201857545,895.6874945775819,0.1828073419496891,0.24045878983164073,95.38063254825066,0.06560489122704094,173.9349559063691,0
3720,0.5182218256515497,0.45441721619344766,953.681308896972,0.23929548988912336,0.2773414114087956,93.87835801510343,-0.06465285362991366,170.6615133869991,0
3730,0.5944429607559284,0.6653199794298442,907.7478480007676,0.1896952540388036,0.21023004112407953,97.27228380431109,0.17420920910354293,127.95969809445106,0
3740,1.183006773416357,1.181462344705964,828.9793232170445,0.2492953417190803,0.27955868818581964,111.27119303714906,0.1648830284996729,168.33391505380735,1
3750,0.571188648460229,0.5206348633408644,901.8899867183297,0.2722409592810809,0.3023414894229402,99.3669212865363,-0.1162606402463605,129.6768529790794,0
3760,0.8189756302937613,0.8931256105482636,782.6143522766256,0.26670378647169796,0.29665885699326505,111.76057801063851,-0.18423296595185482,126.29581401563192,0
3770,1.3448753109694547,1.3339363619699878,791.8940496334639,0.26412769963961724,0.2765568200806081,103.05955612559464,0.09652348334030492,162.18487165139146,0
3780,0.5232719357358259,0.5262354065217639,936.695547976238,0.1781583608538378,0.3678293216141505,93.6827773863022,0.1310441045396613,152.2228427237196,0
3790,1.3144684825889357,1.2863151564688888,833.9258549204746,0.1632577420476778,0.22906533848410082,112.3991497473389,0.1871458263805421,167.10482161249786,0
3800,0.7818547747733999,0.8004449450603854,939.5141021555057,0.2548423242731078,0.3011393487562748,89.53158682212367,0.15593455763532432,127.13777344457908,0
3810,0.6181648276216563,0.5508696021386608,946.7267121004835,0.20525208206915269,0.21240828339131088,88.97531919199182,0.040213907282565936,154.47864502778066,0
3820,1.1967371653641505,1.1749534726945026,957.2687012983852,0.2148519339605021,0.21423113577558195,100.18011696219344,0.012020935684952327,133.98293720361264,0
3830,1.1289428467798839,1.2228253112469414,974.9905707523621,0.15467236391900865,0.31477316993541926,90.43396983848356,-0.1888635794949655,198.9680068739293,0
3840,1.3774720135270528,1.3290987000672783,829.2955661539888,0.18893646739125736,0.31320368497756423,80.36348139804865,-0.10133742126208888,164.89201699481396,1
3850,1.2350710438038859,1.2664183767121444,795.6600454963417,0.1550514605811696,0.3756067025688914,105.93190109195206,-0.016154099306829428,174.9949488752694,0
3860,1.3034809303848487,1.2685189432297876,874.6596239782341,0.28187786589018715,0.31157473513201467,100.44375285889592,0.05140156003342711,146.03346245460864,0
3870,0.7820345725713065,0.8367291977086266,811.3517270312883,0.18650950248277956,0.39195820408097004,97.82071257972645,0.022900733327364253,127.57911318234753,1
3880,0.6774395437797228,0.6036142759233928,880.3222500400699,0.2336005754359512,0.20973896967998595,118.67874058473262,0.09705439587267622,198.06966902268294,0
3890,1.2506147516408583,1.3445789606565672,911.6757587931475,0.15584689809916955,0.21960153695614823,102.84796735851654,-0.08809322764518367,142.90072283065467,0
3900,1.3068347392672641,1.297592647543992,906.521505547641,0.2500271086958487,0.20881317231407628,114.53726311157538,0.025981043060989306,153.90465481388594,0
3910,1.4905051420006732,1.437715234669966,812.3658661060364,0.19845410186311407,0.23705537006670802,85.5780094482064,-0.16474310264368316,171.989113736206,0
3920,0.9126176769114265,0.827317026377429,750.0580605096259,0.28468787804364987,0.30825402218833564,102.7682585251771,-0.03453379056671721,121.9757838148889,0
3930,0.8720180857927832,0.8059696668102914,829.1588015386623,0.2832177283401054,0.32911443628548565,114.71918506923612,0.10006433318184044,184.82073044138295,1
3940,1.2764129607419967,1.2803677504532003,742.7782432245726,0.19879359275426217,0.20911703158973377,103.32423029119592,0.07736034137161762,162.9262552022896,1
3950,0.8408035402530178,0.8082041755392751,967.0291105551426,0.28514413435357017,0.38919417796911987,108.72056712508007,0.1962570948688716,142.25737496550576,1
3960,1.4307573256035648,1.4965339987800867,803.7632382213573,0.29942365102481683,0.36843307533007624,94.88174271248829,-0.0888435496048976,124.92863882339753,1
3970,1.3584127518430118,1.344590256575373,746.3379241669971,0.2738123496185922,0.25932249643141864,83.69798068148266,-0.0007242803304083334,132.9998732379553,0
3980,0.9289940273750183,0.8787368818925443,707.6343279717253,0.2767307021632843,0.2154375060452936,98.31601180508287,-0.0681878344904013,191.60270870827495,0
3990,1.2508710677914974,1.2743000651123033,893.7467158859453,0.1873513104163635,0.23397741464381147,95.7791756335543,-0.0237587543763301,174.8819379148713,1
4000,1.2545428740846822,1.2958983174617713,891.070695236423,0.23650535982866344,0.22538888275099456,114.6824072951579,0.14278005194775528,139.99213773095119,1
4010,0.6031238688359326,0.5365322504161225,802.1812499743875,0.16008838709510517,0.2246567558597894,89.75981209409889,0.07368363007539463,125.24806119560236,0
4020,1.4025529066795666,1.3360767499372301,721.5135666542953,0.16423769052325046,0.3037123377331468,118.66936910140433,0.15297647653903268,175.2492249909309,1
4030,1.005252372447857,0.9125866578345656,822.8886684685696,0.2998338918049936,0.24916948849868006,118.32552479217985,-0.11859555666724542,165.7926180774212,0
4040,1.3264574661077417,1.37373786912087,793.3652485190181,0.19899588741388663,0.2716279433058289,89.90526572285755,0.1493444471365752,152.36156195665882,0
4050,0.8200496010306118,0.8528105065549727,903.1361919205028,0.26222758680732694,0.39790106667686453,93.92207821909282,-0.17609509032864623,149.0889159352051,0
4060,1.3955232284962005,1.3904494036461632,881.7337748358071,0.2709997579540224,0.336862849785069,115.82222963495539,0.15543971217486097,137.34514207432866,0
4070,0.8892016787341631,0.9580357685280025,809.3781184592619,0.27870349065108435,0.3897961334094003,118.6648888358443,-0.06837048821570885,173.56890052300142,0
4080,0.5108376514802984,0.571971682070309,765.367766276497,0.29964424461032346,0.22851131100662314,97.73756411344176,-0.07416494663437342,197.65344222350964,0
4090,1.4053819764192637,1.4224528492986142,996.4107898466775,0.18622447278853016,0.2764278949665139,92.83988182563591,0.004835430679465569,134.05721966694608,0
4100,0.5912866767861336,0.6649409328887853,836.2004863588345,0.15605262402895495,0.31094636065647085,101.04376053006169,0.17627607508929272,167.76932960124026,0
4110,0.8193136375904149,0.7604818795977685,906.4822707340711,0.21167872769918789,0.2153516123777476,107.5107682546294,-0.18088745412743787,153.9348044596781,0
4120,1.450061967050805,1.3724458909303505,742.1658902735082,0.16951210047434204,0.2008374887255916,90.9389806149992,-0.05910760997170189,155.73509773957318,1
4130,1.450607146937556,1.404557069240954,845.6769098978193,0.15336388337430826,0.3340868667593835,109.45892698476291,0.1426287954733343,140.33178241022514,0
4140,1.0734378881232862,0.9848552593411491,708.2610159608397,0.2040640240712229,0.3283639033602871,82.06629428458564,-0.0415782090258133,186.01079005291353,0
4150,1.1318372121697993,1.1380711177700056,851.636535373135,0.26756073766128546,0.2821577619999224,81.97177971057666,-0.12033724096117321,158.8204483317793,0
4160,0.9484455219783198,1.0357666604373121,989.2052221353107,0.23492710368376063,0.29792881520640657,95.45150820582181,-0.030082327467435277,163.47246817586114,0
4170,0.7932107716980645,0.7010794798317664,815.2620138957401,0.1969166983815531,0.28308860011841797,94.13892768242883,-0.04577899940333227,144.38087302378605,1
4180,0.828664545369916,0.7530865281719213,711.6988037724735,0.24815130082390796,0.2048010089689778,92.62532861468608,0.16616648058668138,134.54467725335599,0
4190,1.1725184560770385,1.1629582617337255,709.286737275803,0.1848027270463216,0.2670743212434925,99.6407905067564,0.10477375029723884,126.87283105622564,1
4200,1.25237452943768,1.339149532943261,816.3960279840609,0.15215721691081274,0.23541645107945797,92.82934329246285,0.00204622229760254,177.12953127399328,0
4210,1.2915790437258485,1.2548102647211987,748.0074809389582,0.2646530079654641,0.21968483782027376,87.69031673872368,0.19534822668862845,135.69874253502846,0
4220,1.289618142794554,1.2910651045322323,707.0056288984558,0.24356146272960136,0.39134408677786997,92.37878196354404,-0.013888987489630689,175.2060283351038,0
4230,0.5912061030486904,0.4995206748587688,926.8640841850531,0.264345393675144,0.31987194500843313,118.9961709124094,-0.17670486767188992,151.2301156837563,0
4240,0.9944203047025815,0.9240889448949993,837.5569026645672,0.15584070250314982,0.34573125684732053,96.44453667979394,-0.09509027127400604,153.26198407917212,0
4250,0.5575587600166443,0.6548847846084137,786.7734315917963,0.27556794417459785,0.2630727486532235,97.78851107433343,-0.025571807912274952,157.53419968742173,0
4260,1.0495288823237354,1.1425526216109445,970.0249549049443,0.2429289300054455,0.2786294258988031,103.0617995980456,-0.13723895034155198,149.41668065020346,0
4270,0.941530501373377,0.8425184975602589,734.8416880601577,0.234509302606896,0.24738479877934472,119.33363073656906,0.17902605052961723,128.0495981778072,0
4280,1.3877041827582999,1.4780665398429478,986.7756486865958,0.2436921072171797,0.21939313419308495,89.66405105743053,0.10673955912710925,144.77054480022767,1
4290,0.8509150125520787,0.8787390001151787,794.1900152132058,0.2796649870302546,0.23580632748831676,107.25128442129736,-0.09268511982889094,173.09874885551508,0
4300,0.6170670164276059,0.6906506753316103,966.5211016926044,0.23804047598383604,0.3595028090592972,108.63938774166897,0.03632181340716634,173.26275211750968,0
4310,0.6429916820528359,0.6339396531796077,880.8828629438385,0.2371425569832269,0.3355091610367552,104.29297667172264,0.08857966284382879,142.89794457919956,0
4320,1.2615106317174722,1.2646298374333222,948.0122079224462,0.2986018735598649,0.3093857751970954,83.54313358546577,0.17651157156271918,156.80821012461504,0
4330,1.118218063316261,1.1159873793676451,995.2039489631393,0.2635095250602852,0.29501797457335366,107.07489103310306,0.15265413967016428,135.475778240955,0
4340,0.6011226761227902,0.6344955276320111,786.5216313456237,0.21634407081767026,0.3844868567312249,82.56378844144702,0.0060768904552854774,136.82976652238688,1
4350,0.5841068061149974,0.51203705706626,988.3406456222779,0.2561095500049392,0.2145469895557337,103.84570598199588,0.10986104791720702,121.84376707252859,1
4360,1.20096913145912,1.1069638494336556,816.8445684707261,0.20838457075376826,0.2561201626475832,109.58324708886971,0.02485790153103401,191.7397239926196,0
4370,0.5727630063641935,0.5343489946824317,815.6535714210767,0.18433131937252484,0.2699875707141428,88.43879562479802,0.02108155601821604,136.8565332059925,0
4380,1.3218600592903562,1.3627962118376855,802.1161312763517,0.2395277815331639,0.35648516244255757,113.66488030171097,-0.15410321666472326,138.20271015491707,0
4390,1.2062422271564963,1.146612917581086,862.4222822042756,0.28922731471709273,0.3985029240323943,81.21415222132018,-0.1495449367935392,142.36811461161054,0
4400,0.5813487806418998,0.6160352673068832,746.2435129535461,0.2893709280023194,0.24813410295143062,113.75251454633224,0.011813446008982986,130.19264573563433,0
4410,0.5848377140851919,0.678820123306646,866.1134456074034,0.20128579171582353,0.37486146682741617,98.4131620257106,-0.09245538200839737,171.14103065450902,0
4420,1.4866395785011755,1.4054197216590592,862.5114437230012,0.22915161993325422,0.3661245520863583,88.70351759726577,-0.19158523901581256,126.01143625420693,0
4430,0.8742707957561203,0.9087912194011456,928.570543781461,0.18174538478547916,0.24493147952835334,85.35112579975872,0.08913568156008489,130.73619410610803,0
4440,0.8706421470668909,0.8593921909278052,950.0949885812756,0.2993446664248325,0.2798665160398445,118.13228670329491,-0.18700536132393403,171.58053812720743,0
4450,1.3127995672575026,1.3864280181330035,832.1324050937272,0.29716768618019035,0.28193457385850385,82.90662350324627,0.03811073644162183,147.17284963851543,0
4460,1.4472485773838586,1.3826785352733357,790.6999748054482,0.24742633945611708,0.3956441337053117,87.96373679743702,0.01567751765092576,176.63582613609512,0
4470,1.486001063822871,1.5245262542681037,777.8004691951284,0.270662108951621,0.23617838027577967,93.91289389732184,0.18752587623112177,164.59397957361136,0
4480,1.2533781852589416,1.3210012431885636,758.3871510114616,0.257265024192555,0.35983159422095645,104.80939395844482,-0.0063147442609433335,140.48169384492104,1
4490,0.8762595855309158,0.9651824294257204,717.2942746597074,0.23897373285592022,0.266838542834622,101.79204341104393,-0.17455942544888106,172.06623603914625,0
4500,0.5835007166986688,0.620150322356598,802.734393650414,0.15800219954833464,0.3461740691552321,85.02573969649256,0.020675187122584676,129.30189442343044,1
4510,1.2771469159274367,1.2765818687291222,781.074307639235,0.21821465138289914,0.2840022008591326,91.58911934952859,0.13643846824644057,162.91283064640243,0
4520,1.058404249735805,1.081973697776048,989.9252157599221,0.25121794532511155,0.31567195262330805,89.55007084344096,0.19873971371257598,154.97184840360276,0
4530,0.9242220092469763,0.99800300614272,867.3126478750132,0.2516297420825527,0.36652235466522626,88.54171417961365,-0.027862730524370993,141.42988662539526,0
4540,1.406354385094736,1.420476334422502,804.1831117091523,0.20596839276335754,0.36083311299677684,96.44577345919949,-0.071880503001303,168.32039981916,0
4550,0.6111974823061513,0.5172748942455188,874.1402802981088,0.29125379799870454,0.37328463670794004,108.16125810366628,0.1626613187807996,189.7066873872226,1
4560,0.9926251042908592,1.0788148433922546,741.7590104037087,0.17510355483551715,0.2119234650689318,88.69811728868945,-0.12350314836955145,199.91237598104613,0
4570,0.5113536447674191,0.5492589949737313,833.2131247606609,0.22505391693233406,0.338410110607949,94.66715518811925,0.046171566013170656,168.62102149947395,0
4580,0.9686606419941263,1.0039633191495756,887.8702964263191,0.25363259648262343,0.22799747534435258,95.63669707364649,-0.03771423032762092,152.3764699463336,0
4590,0.5563032756818374,0.4994383061613808,846.6693495377355,0.2545703708837714,0.2831637136036822,119.0582611774164,-0.1835670540177779,138.01656801729612,1
4600,0.6188179162680719,0.6505950103146034,820.5336401962973,0.24729584351532233,0.3097176830109377,118.18665427516275,-0.06108461027772091,140.56768715160894,0
4610,0.6175262467771049,0.5962991279079366,998.1545166699095,0.191293232017779,0.28054789694936616,112.00550331008304,-0.09390859099893017,158.35639825198126,1
4620,1.1492103021160636,1.179456897524362,964.0944286446781,0.17343098530299328,0.3039223351606015,89.6663568327674,0.07443646157739475,149.38221610245674,1
4630,1.2460448792654233,1.1673634853270214,887.021787447832,0.2453910490240066,0.39930526175972386,82.72149256366679,0.17951619907676725,193.10516180999554,0
4640,1.0833687650971595,1.1149378260177667,870.8132083546848,0.23989531742091563,0.22704346274257095,92.676165508825,-0.09278112504854491,149.46363741245676,1
4650,1.462172548474542,1.5620552936286753,886.1981439473752,0.17690340154338613,0.3350912090672851,90.67178197735323,0.12458637566067271,149.87556729163484,1
4660,0.8748705795237041,0.7845129872958152,760.39363234673,0.2557708718355845,0.2792001932771231,100.23703200585575,-0.1778560732246362,150.68276099471817,0
4670,0.7857120862818607,0.8811469231261242,818.5413229792956,0.21827579876004843,0.22660195978146577,111.10911640271172,0.015248404015925254,186.92961682941265,0
4680,1.3685991281894603,1.3499807203340344,711.8378598672698,0.2501640887404729,0.2317473526748619,114.33291755515432,-0.17177997451604218,172.06306566775214,0
4690,0.7235958385194526,0.7977465285869045,842.663811246048,0.2756050619655226,0.3898546212491234,113.79456341642035,0.17361319645225576,169.13350802551142,0
4700,1.4632225394406113,1.5196996362522661,862.907375187299,0.17545926428653846,0.37592029934235244,94.3870224489227,0.10654051222295607,146.73144179070897,0
4710,0.5121544746898163,0.5255577268871499,768.3249208309629,0.1528717301995255,0.38140839208300437,107.48937373842732,0.06317996448183694,185.43233414659517,0
4720,1.469878826707639,1.5175686685579044,989.2086541496542,0.266865387959368,0.3983065551654773,92.5133679009688,0.1295585526498657,123.06910890845609,0
4730,0.5431599119505761,0.6188630242108457,972.8363832811726,0.2414546137728924,0.2416630780017036,82.43622172940731,0.05900791822806528,189.66377378704905,0
4740,1.391143113698071,1.3719711780282775,916.6429706367718,0.25494593544331823,0.2710878674728124,108.0626106241177,0.18757775886971645,161.01999198351436,0
4750,1.0277011090863,0.9931077413989478,860.0159886296087,0.27572324624829636,0.3338438059849733,80.39310210279152,0.08558317914590863,151.86001878907302,1
4760,1.4929647961193004,1.5264834732320174,960.9907478943055,0.2704216402236751,0.2967605079721295,96.36730349833954,0.1698634438328987,159.77338245741487,1
4770,0.5737965647353989,0.6353657531236506,739.1957031470389,0.2941380220393237,0.2836779066756667,93.17517077208302,0.006852756804255206,173.39324244270648,0
4780,1.0538542844013208,1.1063113113566438,937.1529382824655,0.23039026182781774,0.27156224986711863,107.7351015407541,-0.15317423480725495,121.02123412143179,0
4790,1.469302535619099,1.528865265390826,737.4462441900545,0.2232743448989858,0.31875612638869044,110.64981891041515,0.011271088569206833,189.72414851665982,0
4800,1.0230978441701488,1.0102145071327353,938.2631987648216,0.2102830799836095,0.31511868572801643,92.16378543885135,-0.14925086877476268,155.73916202491142,1
4810,1.1293986381352625,1.1929654813702668,782.7302704754071,0.17305365642663068,0.23229156681284802,112.46508057779414,0.03699739167056201,147.43732157600624,0
4820,1.1957486889846172,1.119790500058739,963.1271743054567,0.23589108493230337,0.29434796750368786,91.75667042019735,-0.007002775788934823,131.05964525072457,0
4830,0.9545410647677732,0.9634388843599432,983.2126281476194,0.1915518786488968,0.31069435524197,97.85305439946245,0.04903015913311268,155.15722994867536,1
4840,1.1275580800840634,1.0287098121836877,744.6387908215347,0.2881961268319463,0.3140573877462781,109.08074108056536,-0.19598120757806736,159.7058217027503,1
4850,1.0843143119231002,1.0492314779031542,838.8026815196181,0.2374786206415646,0.24202143858247038,107.71680916899155,-0.12206380333785437,152.29173555947824,1
4860,1.401158010490989,1.3744503174652687,994.2962134488055,0.23892602707621652,0.3484542784504574,119.494738892488,-0.003467827235147658,174.29280750615177,1
4870,0.5454463803414579,0.5246809186633089,845.022230791944,0.2032386991315515,0.20503981896421394,89.00644096863728,0.18020142463565397,153.67172230073808,0
4880,0.7809631895922303,0.8200566309302028,959.0642567543636,0.1577984027966561,0.27096637110863253,106.49271654158329,-0.046556383857936645,196.9134062277259,0
4890,1.4504114840765587,1.428123104330628,876.6194566393959,0.1547615648059483,0.35604252970712674,104.3872763310311,-0.03025118957854614,167.94220142588733,0
4900,1.3902637838909162,1.3800025084154224,812.5989723758805,0.21350027162297963,0.3127785842110805,116.60393817960119,0.08587843560264885,184.5982348521527,0
4910,0.9556567527857129,0.9031655789605785,785.7350666577611,0.16268480671458568,0.25223248650217206,86.254485665795,0.04151710291444721,128.7484722487583,1
4920,1.1201325978015366,1.0947829561274047,760.9669273258262,0.24102704333102087,0.33899062386860956,110.07192654347732,-0.08042953996066671,151.78330343567245,0
4930,0.7773811829811327,0.722835108433763,928.5394574133092,0.2821459508459486,0.3134781888312147,102.73074465075074,-0.03567344177302889,146.9478161157722,0
4940,0.6881211597237613,0.6027603444774501,815.9621520469084,0.28243722247780834,0.35924872189127743,90.98663479151622,-0.11292008045710702,165.55859105092736,1
4950,0.9636984049399822,0.9843881236162577,853.3826386602253,0.24885681151983485,0.3470050372379647,98.97739656588696,0.1864085836520834,188.88908160491405,0
4960,0.8533522280260528,0.8869947877370561,847.6976440003546,0.18168477472093963,0.32202158440724693,93.35106388279192,-0.1477462473770561,126.26705742096053,1
4970,1.083656111850872,1.107554181052795,873.1837087699394,0.2794495247038308,0.29763553506216284,103.17253611153843,-0.051265286173432234,125.80598384357687,1
4980,0.5777346369649848,0.5704334457250994,959.6731436873656,0.28291401529698124,0.22663642513350468,115.56002443258663,-0.18966441111199553,188.02541665260793,0
4990,1.4743948076661666,1.4503519637020126,994.2218030750289,0.1794980377429438,0.25226660357707675,102.77219937648809,-0.11128820322658145,137.0280068830686,0
5000,1.4862107444796029,1.558877474393968,822.275262572145,0.2606139128656016,0.28381989458341705,105.26889673306336,0.11218845535206196,173.5002603559851,0
5010,1.1981617140197451,1.2019780710469887,948.2556766318909,0.19297793233906843,0.31985985740127776,100.74991388458838,-0.11952990708444822,163.4302505888644,0
5020,1.0360963663441205,1.0319327418700668,929.3583383964153,0.27039604685293944,0.302741571043061,82.04662025781903,-0.16797463898841378,186.63148759097834,0
5030,0.8095276162863277,0.7146560294476149,872.058685436672,0.2995856849855404,0.2576369051919059,89.31434227504377,-0.01021872806219068,130.00711278691227,0
5040,1.3137950197069488,1.28204458523218,986.8141430835799,0.15450390079940893,0.20129287155794212,99.68006917728331,-0.1960123061061926,130.3826372578089,1
5050,1.1847311725538794,1.1607702963110509,760.1423546585208,0.2846048798686398,0.29924784438016283,92.40941134978819,-0.16609353822946674,164.5454688222646,0
5060,0.6626169393448913,0.6423814955242714,732.7792630928864,0.2433945800397987,0.2571251977124486,87.27054391044777,0.12305034782519003,195.71029226866966,1
5070,1.4109271844938425,1.426961658339309,956.1885900866266,0.29600739287472316,0.346921660142107,100.16531367673753,0.10858933794384257,153.19982066966034,0
5080,1.322537242923169,1.3292577522685447,831.7449449901245,0.21975142762896413,0.2047892530540967,92.91239173791402,0.1660555281619584,146.1553680203756,0
5090,1.449799913291924,1.4713809318506128,954.0906562621182,0.27710818958570604,0.3169655622611582,90.32430572693659,0.14180617436429982,168.53514585583088,1
5100,1.22571950838836,1.2786961606967857,967.9270615586245,0.1593591102897416,0.3882948475012131,98.55941669761523,0.07327022529592725,194.4358880436025,0
5110,1.1134151959357899,1.1760123436790086,718.7372780857214,0.20029185751174436,0.23488185342229992,85.33137032328693,-0.17906685707973488,186.95422662756988,0
5120,0.9182430362906189,0.9618676515359177,965.0394288958182,0.1600524806626815,0.2943298981501191,117.1098293230163,0.11313944719466301,199.6386888586576,0
5130,1.4327284833540133,1.5238332225450002,834.4957166108267,0.2963014700218606,0.21828439836342764,114.70808391676957,0.1382043243362242,121.80548665619017,1
5140,1.3660638895004085,1.2697104060356807,853.1297467012696,0.27254608609077546,0.3251363824522705,108.30482342962142,0.11963285830878179,129.02865157702098,0
5150,0.5452186701061894,0.4843742672428986,887.977753327963,0.2778821131868956,0.31010633611924515,84.24855310353824,0.003391614123210429,168.75742106932975,0
5160,0.526366974497252,0.42787954949288043,977.914782019026,0.29069478471508414,0.2814731048425665,111.03509017878773,-0.10683926454020734,185.64611514670798,0
5170,0.8764633668780496,0.9059583097089702,705.7348283289292,0.1627655229179678,0.30427540429474825,112.31829312436076,0.13813199027549067,142.81954738454132,1
5180,1.310553330781833,1.3901594405718303,843.0530404953452,0.207839638877,0.37931493169380204,110.7105847085735,0.09086512389605539,139.1368870427375,1
5190,1.4872761293149446,1.4359725886302044,906.3166127291682,0.1606552333566003,0.23925886046221342,84.55863548476965,0.19230446975554066,182.95806395049607,0
5200,0.6504168911035282,0.7358238000627895,916.8120873094686,0.1816189652325043,0.20451290234106945,105.7563182827106,-0.13772296089762684,124.51054830825852,1
5210,1.0941307153521351,1.0061841934100473,907.7597294611323,0.18440486655565086,0.3723329769398202,113.37299182997594,-0.10973416677917798,149.5506118066068,0
5220,0.8808908566310215,0.9677780619921243,740.3305388224366,0.22036608165713678,0.3154234164775813,103.09413604878671,-0.11528074004739892,160.46473780738637,0
5230,1.4699143978146032,1.44023893526253,789.8186765115043,0.19028432511804638,0.3781316910923685,105.85629500912356,0.1170159070485347,164.82789394802586,0
5240,1.3421189231357087,1.262403088825552,807.6146576251041,0.16514671602266415,0.3193890446826345,98.33453917705225,-0.12523708141995274,178.28921254342214,0
5250,1.3383287047111379,1.335503056548403,941.3311623038514,0.17512366336411614,0.3620322179919405,101.1482927953621,-0.17333606807067758,148.38765787445266,0
5260,0.9686931597949703,0.9200484733390719,783.627961724366,0.17209133453281364,0.2859346726710296,81.37507433406901,0.19942432263425147,169.01474757396858,0
5270,0.9148195023376652,0.8717940827300498,763.2114891601609,0.2959615196868447,0.3499719862576538,105.55852087893138,-0.19007311542194036,166.8300338232765,0
5280,0.7734070719307062,0.7348650649159636,987.2344057114288,0.26389387603777104,0.3826082933779712,83.25788851564637,0.13409762406354625,163.80928805229976,1
5290,0.5563754966509271,0.6169806762174598,702.6589855340407,0.2951642197904343,0.3144245927444413,97.40058377360893,-0.05385326337973889,171.23866345137696,0
5300,1.3647223762550533,1.3725546315901043,999.3462567045935,0.21596107297618627,0.2361570301124759,91.70620390669632,0.1366461839031261,140.7559336854461,0
5310,1.3129010091300777,1.2751625489612783,903.0463896572187,0.19175527224939848,0.25375952300603966,101.81711800846853,0.021848196484457988,126.77190028677032,1
5320,1.4997176732861306,1.5217844299483143,948.540789834735,0.26974397958137797,0.23972891537948116,85.33665342092829,0.16065249179454405,129.54173376317948,0
5330,1.4966368370739054,1.539866971918544,788.385818903858,0.198938087706172,0.2493714055191466,107.66573607893272,0.1704771945658507,137.96659061231207,0
5340,1.0554317056026274,1.0099565057493343,704.294583300118,0.19490750605580223,0.2612830898702073,111.80046147713881,-0.19636072748768962,160.01583484182282,1
5350,1.2689874151805105,1.2516972354855809,921.360855568459,0.18487589883117467,0.31102675735063773,86.53417798972626,-0.16983512960288472,187.23542004368161,0
5360,1.4447657298824281,1.3691429485498177,950.2433791002027,0.1694518467336353,0.3175983258927666,84.17252349407529,-0.09985650817165781,176.10346736707072,0
5370,1.3496473906774114,1.2858772605843474,922.1428395860557,0.1884694591525149,0.2852999494483722,85.82061931149437,0.06772616654540065,183.12324833616378,0
5380,0.7473481017431977,0.7835716725361942,742.8550861902515,0.20329796227108315,0.3230841559641671,115.08510247594006,0.1553088786046024,148.0780499140873,1
5390,0.9505441353100935,0.8868318048492189,926.0283766770907,0.25109913122185956,0.2163149851222732,101.12757047025426,-0.01602321948241489,152.37229933188402,0
5400,0.629159415151495,0.634192091884907,930.6768346322923,0.15938472633291773,0.217557647411632,98.6904398403001,0.04278924650970617,151.49455087924903,1
5410,1.4540510272587224,1.495860279603209,897.5621547010164,0.18157604094980143,0.2343658920715317,84.26847276409417,-0.12460005888177555,135.34985475236013,0
5420,1.10617463445088,1.0275500190698288,929.8347798386759,0.27135354604375145,0.303615499608069,105.98224027027847,0.12198673355267414,124.89733265148575,0
5430,0.7286428055034627,0.7421052494292434,953.7764319033197,0.17203828853756561,0.2427989357396627,114.7199836758036,0.18693124454138793,167.27328742617814,1
5440,1.1717006844058568,1.1230132411461295,884.0812342712375,0.20139677197837821,0.2566568806985155,113.12743477293812,-0.09256042683416102,199.13733467364688,0
5450,1.1181282404578958,1.2107136155054117,726.5814141909037,0.279698838278721,0.2800625672345988,105.04218835923206,-0.002069619359781477,133.34637639602101,0
5460,0.8581627180328405,0.8548718473768254,846.2883429001632,0.1732387966715164,0.362373224802076,83.01114866606694,-0.16555355579745049,123.7347855919419,0
5470,0.613557592199629,0.6747561021546606,723.2948004014816,0.16241052534272848,0.20277242718257205,84.49588108704052,0.023654662585187364,182.36253454591463,1
5480,1.1715731955927997,1.181618504024052,822.2629093097293,0.22268069926200162,0.3298757640473245,81.97235948439298,0.0011133767386722337,140.20688053477795,0
5490,1.0203077009037933,0.9289902074747571,822.1319467376883,0.19536292669178046,0.3337753062081371,90.29916865969878,-0.14222540633796898,186.3715044282343,0
5500,1.2723183917356393,1.2989486668544439,719.8029532420725,0.2345112546725781,0.35973115607132733,85.42645868641512,-0.02317351475276999,176.31493336276122,0
5510,1.0201635011119934,1.1104441695533247,804.6461601908438,0.27057073357252126,0.38655058781206264,90.40192161009736,-0.0663581391653747,195.65388296406437,1
5520,1.3521815003185402,1.3725038643478065,733.2994296373945,0.17057227322291146,0.20402756978985798,95.40232222875846,0.008732350122075738,152.71417886053376,0
5530,1.0519068387744857,1.1157446106598436,942.4705630027667,0.23710486268314274,0.23075674110264324,117.71931136284542,0.034261734171519675,172.95758715605075,0
5540,1.0609379715353864,1.137779264205068,984.3064077893412,0.22582631405847958,0.37723425881119865,104.41504239126769,-0.1966017685571162,157.18838246506166,0
5550,1.3766536026583451,1.3222695570481315,721.6949425773815,0.17161181790197994,0.2917037124374031,113.3989514273185,0.10440239317982214,170.44709578468348,0
5560,0.903482866212397,0.8458918341940423,986.5345621875103,0.24359977282934736,0.3129181277866927,108.41406002849328,0.08520571674469635,155.967912480619,0
5570,0.6340152284506407,0.6562114262208391,856.7729798010236,0.19104606267911572,0.3326054407446295,84.50012522106528,-0.05348544551739112,135.090579713926,0
5580,0.528782676313339,0.5109883702746799,789.8697033861622,0.22317514778160186,0.3358133208991275,109.43681625495796,-0.1788256257724727,160.63179328027047,0
5590,1.2551372556736191,1.3231095162469633,723.058622582849,0.1623408486415593,0.3863480806633017,91.00395526236498,0.10197301591402014,162.2867361149954,1
5600,1.1203095513534647,1.200314176033067,850.1872804211254,0.21893760858204345,0.39938988348233395,105.56431387978826,0.182070064191253,184.8483078608129,1
5610,1.2040797680992235,1.174764043959767,938.3546633472246,0.19596952020642305,0.34403149218618806,93.63847894571954,-0.10393936159119432,178.8416564634865,0
5620,0.7129641615089107,0.6603382733038071,912.1259431800095,0.27335718167780315,0.2574442418410302,119.90689053058637,-0.07059015450518485,173.10332991531553,1
5630,0.6363714755867698,0.6924765786355421,715.0678034391922,0.15854680904960525,0.37595048045886875,90.54205917987112,-0.126474844207274,129.0709676442058,0
5640,0.5145446656678819,0.46950587277750916,721.8705506103711,0.21279109123774947,0.20984418290815232,91.16521883097079,0.030774449337935883,177.6493032530972,1
5650,0.850587558806597,0.9151104225093327,820.8619847897911,0.2187647136197157,0.24621617057489925,117.22689022249594,-0.13806344214101804,160.0244125083612,0
5660,1.089917686854633,1.0746653375843855,788.587148214383,0.2587509114448678,0.379477143492743,80.9857761854529,-0.05752242261544824,191.52796288849274,0
5670,0.8922440450997323,0.9257540249580264,769.7152969168144,0.23614313626353164,0.251238302887871,107.86755951492788,0.07880520557370518,193.58967473044342,1
5680,0.9374749220237291,0.8565819847906627,784.301349672614,0.25008185057912713,0.2441302119243497,109.01305562943513,0.024046393203739358,124.41252724814284,1
5690,1.4041586944937485,1.428930559429063,941.0448229890653,0.2665573928477634,0.22762505862804946,113.45514309641598,-0.0454149742688259,185.6513248283583,0
5700,0.8482554670233003,0.8386090027707461,978.7684160895562,0.2793304460487283,0.3718223515293833,118.97757242553902,-0.03190015927698325,123.01579123381364,0
5710,1.013989489159811,1.0313111817949057,821.53080835827,0.19708132450837057,0.3000116518382174,119.02407676626609,0.024844353049291806,149.37357005560182,0
5720,1.283653012741143,1.2172558542901157,971.833300639749,0.23070340580458543,0.33497864061083094,82.61107030265856,-0.19765410884513548,163.38399804968634,0
5730,0.8965427823212702,0.9439175313101066,796.4487103743646,0.27601621176588,0.24781327681500595,112.87357291011611,-0.16859605261855606,131.84806389017018,0
5740,1.1220867002278734,1.1946461157365191,842.9310959031375,0.29841766964475847,0.3516080842022433,105.85239734629525,0.15250322710520464,179.70510500552615,0
5750,1.362363708746745,1.3057116687649002,767.8086993448,0.2834278966565644,0.3520011089924197,105.89368537492365,-0.1688484043634837,120.66837633377108,1
5760,1.4495206236576421,1.3686635347616745,892.1428126527532,0.20572008939365652,0.26251960498166005,85.13399706458779,0.08272143848420205,133.48792387472295,0
5770,0.6470734809290379,0.5518011981383052,993.6943345524427,0.17927497758279756,0.28213652660205657,106.00748665782614,0.16801526564362107,166.46374638827805,0
5780,1.4265876251614944,1.4549819252501477,881.0479288130136,0.2234088806109883,0.2419380554860402,119.29930322404991,-0.09172655827930756,177.1510049629834,0
5790,0.9921162930795382,1.0135351002972943,807.3442252340647,0.26124621777540635,0.3953122046645809,116.47274278157788,-0.051803425176194295,193.3314482155133,0
5800,0.7582443882989583,0.7675838708417724,894.3452337971585,0.22388536061299463,0.3291205154116823,97.56522643219402,0.027568562337886515,176.4397321547699,0
5810,0.9591357562382613,0.9055251754614564,736.8762035396163,0.22247712949705029,0.38690877614310315,81.59791893144377,0.1526835878554339,173.74234162038928,0
5820,1.480032575285477,1.45821377446658,966.5977240796196,0.2757345631622701,0.26067710872582667,94.49173960000819,0.1767622349041681,151.54729170805314,1
5830,0.9926180939928696,1.0115133610301041,850.925185233951,0.20421056686007794,0.356378182599378,113.0556124640222,0.09582529924450722,120.10275404214411,1
5840,0.8287516102875082,0.8281049820593421,834.8049226118926,0.27896920122174684,0.3531717287769484,108.05996405860664,-0.1653520956581224,129.61274069884976,0
5850,1.1334008543167258,1.2309579583597032,875.7594365360558,0.21102072014275852,0.3383311303733083,98.37374622375826,0.06766166221394032,162.76436358048312,0
5860,0.7401456187781931,0.6674335692895397,887.4351588368207,0.1992349658517509,0.3931277950533601,82.20406140635325,-0.03587851125093516,174.01039086755358,0
5870,0.5758633281086639,0.6148922389181827,721.5327418679539,0.21809848667995485,0.27871106722126315,97.07578911293211,-0.011719600203575375,153.395862711717,1
5880,0.6288797219106492,0.6097434755315077,904.7851663670207,0.2643670438012303,0.22614346471795146,98.76099758871534,-0.1803406438619292,178.45432092227122,1
5890,0.6280458389577724,0.6136857619428954,772.5795040946589,0.16890030417959914,0.3343417718488122,117.14222131576544,-0.12357514426145673,161.7489836265743,0
5900,0.6519026935122944,0.6954222466439296,914.1857897519769,0.1794628823808026,0.34586196009544123,105.64344414328637,0.11620544301345909,125.93409564754498,0
5910,0.6388271726494101,0.6773144029142841,946.7604383152591,0.2927167238494638,0.31501211469176293,92.46611666618595,-0.018416466780856094,135.3613000774359,1
5920,1.1408747448032146,1.2391259435436524,941.187552265756,0.1763237441072036,0.24136357862667926,101.01273057802885,-0.07933510334754046,187.19985785951542,0
5930,0.6818800843991448,0.6075589422899699,865.7502902223667,0.23515909768965818,0.3008911883338711,82.6422123128864,-0.046392370414016726,177.99301972995517,0
5940,0.8456672833238632,0.7664892132006964,856.0509676932254,0.23689716999929067,0.2624379473138259,118.90272942598946,0.1417598053302721,191.5809589609996,1
5950,1.3967884099060117,1.4416561733317599,742.8627884018235,0.22344366930753673,0.28549330563333786,94.40239607722904,0.09959960696198278,129.40457992967492,1
5960,0.9739616402628724,0.9896390236641541,932.6038451209407,0.24671178728652277,0.3290437151689328,99.11469419652543,-0.09107384112756689,199.21780276920592,0
5970,1.1675577385210272,1.1223898718329883,781.4228141340143,0.18447400886964277,0.3490429485381669,94.2113589694769,-0.1529992639150507,136.7525371159947,0
5980,0.6723198712016298,0.5882037449994272,849.008626845384,0.2328993401665122,0.24644493818026864,107.30046920464801,-0.09920071134237132,120.94239010293136,0
5990,0.6922890188086708,0.6094206687279569,785.2822278782551,0.20582598828703458,0.2810650721293907,106.48928633318371,0.1683025804218935,199.79383512428433,0
6000,0.5408686162664789,0.6197067911993025,740.1485088999079,0.24925008894437833,0.25383231419832586,108.61289242116543,0.03263553513990214,142.48591083560905,0
6010,0.6689350630721645,0.6073085280159132,888.867309067521,0.1711835315059724,0.23972632277237382,90.72572918447683,0.013392083497913154,173.4415562010048,0
6020,0.7785903390319586,0.7432646514550628,716.2996104468712,0.2356316125259214,0.3566774439991677,92.62673924656264,0.03855743987698462,134.1345851341044,1
6030,0.6770104842767468,0.6223417647221444,924.59357023786,0.17779055330749854,0.3818505388873985,85.01004924384831,-0.05358869370139391,166.41828257593133,1
6040,0.5887025337570556,0.5597017949234431,795.276038578335,0.19179645946725546,0.27404643713691534,106.2203988738445,0.12284280812780513,192.32279891636475,0
6050,0.6206358711006008,0.5345206396498194,700.0404079013456,0.18280647004853748,0.3502557848747534,81.5918850934261,0.009314499720099928,145.6144933942751,0
6060,0.9607787680327258,0.9645907262143798,853.338741771169,0.17742566698032256,0.37939905787288225,103.90729342093836,-0.1533008388924818,173.62031808354874,0
6070,0.7063337184057925,0.6198562311242355,714.0555725582809,0.27385664273410004,0.36922484210604634,114.78783539406535,-0.14837395006837484,135.03228710387333,0
6080,0.8642698610480755,0.9243411626125477,782.8508673462699,0.19285613514913355,0.2365626777078452,115.63328593158533,0.014743658601047344,169.98363189749801,0
6090,1.003417270854857,0.9501596872369436,912.0929462367149,0.2890685672796674,0.3912583763026723,97.96151041479847,0.17462808722833567,146.91602814540082,0
6100,1.1903948286293653,1.1983972115502675,718.8068864865597,0.2954889788017786,0.2753352880858925,98.37214752852296,-0.0766591513295205,136.89666068703613,1
6110,0.5393121398410989,0.6153279573533906,951.8015477068006,0.2356890704905646,0.2678481322347673,83.0787673203207,0.14781646754368732,145.05456405629081,0
6120,1.2994103989090426,1.3295858727184815,701.1459767975749,0.17145016839985897,0.21248626545555607,106.83060101772142,0.10563823463155175,134.30728548062396,1
6130,1.1279003894909079,1.134491946801175,774.0471607605707,0.20618223650693718,0.2972347308209766,112.85037681491383,-0.10087502283723726,192.15328862703063,1
6140,0.5817590319488719,0.546625782571947,922.2712168456214,0.2696598395022321,0.22180272312818575,89.78620218418853,-0.18546370067350304,151.7749509053703,0
6150,1.3735786241067771,1.3401790067184167,794.881044918792,0.20510860930456057,0.24970796418548522,96.85203526533459,-0.1592610939430469,139.62234439794938,0
6160,1.4208724005318132,1.4547697915714513,730.567716419804,0.1630525827454183,0.2633885243534563,113.55357347061081,0.0913975735389761,155.87262728127462,1
6170,0.5610779598548638,0.6599058320990973,808.0701756401284,0.2335177366392282,0.3617652646983368,115.08481870649152,-0.12013210478374133,145.64289334451965,1
6180,0.7768776481472037,0.8092454861170795,781.1179859153576,0.2767681277244052,0.37509773007917935,89.72719921056904,-0.051491631797842496,179.55354030506606,0
6190,1.3062012797930613,1.3177579632670664,952.8135706481664,0.26938895807152535,0.26049326349229396,102.02282538165457,0.000679666402569945,197.69759295083955,0
6200,1.2482596903836582,1.2943897924315075,794.004375275543,0.17626847101955298,0.3717396242489148,87.69972602543308,0.0901872673800651,155.04269253581174,0
6210,0.6845210193563773,0.6775621418131209,936.6797415328022,0.25091469216187,0.37144618747395824,84.07515056558226,-0.15470751069634986,188.88267199777923,1
6220,0.7093493233367103,0.6213777918568674,967.5616434432204,0.18307563951534706,0.35293019007697474,116.44482005567829,-0.037453437889015395,165.26904588476955,0
6230,0.870472102791382,0.8829314659669639,830.1452258729589,0.18273113018282583,0.2293390228030363,112.82030016928437,-0.005970836342921837,132.57885320753869,0
6240,0.9845229851910213,1.0760480420920975,972.9829431563176,0.2811107659957778,0.33806456938014584,110.40139607212696,0.01633082558861587,175.24981936650732,1
6250,1.118254771530296,1.053315360001828,813.1954161889579,0.18745034291103452,0.3890048129161138,81.95065275252561,0.12734425655808668,161.0747597700656,0
6260,0.8689136395697724,0.9069146177339056,989.2235249470325,0.18948710197770166,0.33650809575343144,113.7491517084103,-0.13132872198271323,172.04852186016828,0
6270,0.9625347161331479,0.9027214538649592,726.7868573576719,0.15009800861419492,0.2663233698215668,97.52176303621535,0.12313258073064892,191.1749930057332,0
6280,1.2474709381337565,1.2546364750283727,906.1057799509729,0.28060035511882764,0.30011586348616626,93.69580493183439,0.07715137107866088,155.2347656524837,1
6290,0.5366832028905979,0.45601849281994183,848.1442121370786,0.2688892219813702,0.32914500867021074,101.85905444101506,0.022348325679583725,192.09420985738845,0
6300,0.7524369443440208,0.7425111315956577,816.2946416366941,0.2440993402636017,0.30211408174570076,83.65412970894224,0.07981114816102874,180.0535211425324,0
6310,1.2133495858845524,1.2645822516636016,889.8135636245803,0.26253986459082634,0.22399058834619398,110.26586197409596,-0.03519290441933745,159.0883940702388,0
6320,1.3952068376871993,1.3647211425349957,911.1571274902993,0.17280728511367377,0.26241280893040414,103.29740307553183,-0.1446409656127502,168.2577708526371,0
6330,1.011677442115666,1.0446597870131096,701.3089808950928,0.2187485391881363,0.36047920611072654,87.4636038749267,0.0663060961061469,146.04649060152093,0
6340,1.0321134852653158,1.0912034774232615,750.0859266241596,0.20268290810231712,0.37228360921910353,87.52928799076183,0.009868922674248909,198.68778397910194,0
6350,0.607172011339776,0.6926075752356666,913.9138151902956,0.16406647893855247,0.22746000654311405,87.36994606290696,0.05574992021711023,173.38809304403168,0
6360,0.9474123668234546,0.8943407831945454,899.9156240734619,0.22291957278223862,0.39047735047974497,82.28009550207736,-0.06480048758860399,123.50774819973039,1
6370,1.032617266455023,1.0124804496168847,989.8142515386032,0.2881109475513953,0.2657645235697219,103.5119379748674,0.1627466309359344,146.1297524598407,1
6380,0.7424705036347297,0.6729537063008131,928.3113370752349,0.15600886785760418,0.33246274774614404,113.61392710354033,0.034947947430230775,169.8651547007246,0
6390,0.769243230949381,0.867739931381056,985.2318123194013,0.19371913702406907,0.3503650291913363,80.69992855949555,-0.16583900628365048,124.50666222393919,0
6400,0.8772841631046226,0.9626843566894817,910.7621504604421,0.18113114043085551,0.3623892469275767,81.96018579885094,-0.020078403718228527,121.91073530553142,0
6410,0.5200711977777264,0.5280626238338383,789.415662591833,0.18572199804985445,0.389149940445186,102.91081106747782,0.10254242189745372,156.0019391622242,1
6420,0.8220791655831783,0.8904858244584626,731.6094766752569,0.28626518278190627,0.26258390960576455,112.7798274154421,0.11765382469290897,146.6152143754136,0
6430,0.7114480069965446,0.715639602450953,934.5471590034807,0.2202103581351435,0.3717012909103109,93.06955562274534,-0.0021611788944964905,155.06388864265327,0
6440,0.8274973521779146,0.8522144897784666,893.2447664427748,0.21994491194097282,0.2263373806872414,93.98457595230889,0.15789902833252045,141.01546479040042,0
6450,0.6197621318192512,0.5375870182424545,714.4558037179888,0.2640863463682923,0.3410081812707185,103.85385989987104,-0.09293262512228098,133.17741975543848,0
6460,1.390527280739895,1.4415813648392566,808.0151397702934,0.17317383060073888,0.3483955459027972,90.96851556496588,-0.035760521104693355,175.131468558427,0
6470,1.0935924535540487,1.0191351502810957,987.0399446452859,0.2230898031150076,0.3355446482402641,81.06433464310737,0.15943876422758801,161.16568930142404,0
6480,1.1791023191444896,1.2443158451949952,850.1203437130604,0.21449778211815895,0.2504629472270306,109.40914072406385,0.1585026865886316,136.01233689994933,0
6490,1.2891712386073384,1.3455768561414156,829.8187408059114,0.2395366035819984,0.3746086294030407,105.02599651765813,0.07428510752987239,145.56715410079985,1
6500,0.9984421989290573,1.0401911384776525,837.3098815477882,0.2999336554875658,0.23377169267407902,103.23023996222636,0.14359221884888806,167.34463261306607,0
6510,0.5869202880874237,0.4941523641923761,762.6648172015491,0.26541733411230706,0.21072695830416618,109.66736515967293,-0.16449069321750695,125.77834786179822,0
6520,1.037106541818548,0.9977322130076136,810.6121512594385,0.20967985545261408,0.34349299812238243,107.0092335024815,0.14599799048311052,131.79624074129435,0
6530,1.086841118020879,1.0394636320030477,810.943976796153,0.27413295784110703,0.29509514304654677,88.23527952713285,-0.07175203737990929,125.8596483285912,0
6540,1.24543947418433,1.2174667556786338,715.7065060562417,0.17560625449687203,0.36981960399173525,94.09924187773404,-0.1286673950287135,184.9853866171295,0
6550,0.9316595462296794,0.8491880955824471,930.2702885553755,0.154569552946344,0.2766794282116518,85.044405667145,-0.10425206546318147,180.19273865696073,0
6560,0.6275803027955638,0.7149718674017763,824.9513295711637,0.18066725586964094,0.2336557177015426,85.19428053671524,-0.032812596794445176,180.26503455034057,0
6570,0.7837759057987245,0.7945363539411997,946.653966044927,0.20106173341713895,0.36728843849397397,107.04782985426156,-0.09952319815821312,177.30602747808223,0
6580,0.8630822963986351,0.8241871585302398,955.1044003359686,0.22658711361893397,0.3097819263280144,114.34400427929992,-0.07177296559340038,173.55083389358953,0
6590,1.1459172413316012,1.125313544746458,763.5982164095974,0.24226937108117996,0.237839158478071,118.50930335444556,-0.14600860557134318,158.159353230254,0
6600,1.0707783046689119,1.060218812769879,897.2060446510386,0.28659085758216324,0.34407679971728916,105.13388470197778,-0.0815292937764006,171.3822530805692,1
6610,0.8560967258978462,0.8762155925699697,841.6845412488944,0.22647810143256863,0.30222272769790015,87.36405293443828,0.028913525816800456,123.06892438303797,0
6620,1.4865152487929798,1.4896511343322794,964.0470213764455,0.2251913466938594,0.320862596448064,84.22601381795722,-0.023258516763574433,169.71715381254276,0
6630,1.105774819356887,1.1896532139997704,764.7222037529363,0.1575364514734473,0.2921796676413164,112.51403886147031,-0.06131249550563553,182.23021644295017,0
6640,0.7372267917359945,0.7366194883171605,903.3439600930133,0.15523673289843357,0.3657417967636013,103.15025905439997,0.09858085154284557,160.0286688307512,0
6650,0.6017824726204037,0.7002140755850663,882.3256366758168,0.2326739942874558,0.36591254313661,104.73140084054879,0.15740398855732718,148.60106627417895,0
6660,0.652859139184332,0.7231441307333512,788.5904432715498,0.21572679198725167,0.34187776436487727,111.25848355018837,0.1027156891609588,142.19413878407832,0
6670,0.7459577283845081,0.6876598312559753,740.9802710953518,0.27587705924704475,0.22108027547929246,108.13108910929806,-0.06719971915292833,171.4241640129666,1
6680,0.6606813732595557,0.7468004161883389,895.491928143183,0.17410193770677676,0.3677707723808138,113.37833011424387,0.09777686713502148,175.4240958903927,0
6690,0.6865670240513058,0.609840303628401,921.5792374396992,0.15374574931755744,0.334202596106582,82.24855621839514,-0.13920792701037954,189.6774079890034,0
6700,0.7850951686938471,0.8485851103920854,794.688203129005,0.21735581518951885,0.3394048332008599,109.9008254698602,-0.14787280476348363,147.38672659687927,1
6710,0.6733735952947548,0.6494982539900709,893.4497812066941,0.18562178351283862,0.27259656808077437,114.03411029288381,-0.06174918518553643,181.58178459084684,1
6720,1.3967654246264252,1.472360288715439,818.5392722834509,0.15744215600082562,0.3758559112314014,91.44540169833257,0.12308094761762284,164.90846593514703,0
6730,0.5802337456616422,0.6538450836831323,913.9620649847853,0.2586897430271443,0.34507432004697147,105.61789095973012,-0.10146070110307925,190.62691925424633,0
6740,1.0245113895702547,1.085696469593779,759.764582468216,0.16673894999358713,0.2225180933058389,92.56648255347889,-0.1746986364405282,162.22496866364966,0
6750,0.9103968269896615,0.9684029142510738,967.0645007908523,0.24124792500116576,0.28155560688123255,118.31884265929816,-0.147316185917458,161.41038627183738,0
6760,1.4823786169086064,1.4433144447282145,786.2228789396739,0.19215746252503335,0.37727607239202837,81.33694289742014,0.14349798741183206,166.23016651527274,0
6770,0.6120389021680523,0.5282227587783028,810.3357963268459,0.1760244075532533,0.2094393403394758,103.1917137533182,0.05351331389891506,179.94522841139474,0
6780,0.8978555990457416,0.878451634798774,717.427585624105,0.20696272843789762,0.3922833239284099,86.6601418819806,-0.09871953465200933,197.17523830627687,1
6790,1.4694704332753687,1.4041753362726705,733.4536636963829,0.270216866433443,0.33583251366391254,108.48880820708635,0.02211833013127254,125.88506833726126,0
6800,1.3655071258939802,1.4044973436744725,854.7585708136985,0.2088140365356859,0.32627519552867534,87.03561133674648,0.011031848970140146,124.27476819128137,0
6810,1.3170720709492798,1.286292016256837,780.2778030183914,0.2626154473816583,0.2541118512975983,89.4153304759343,0.062174391376264515,195.0040269925871,0
6820,0.7579028270449398,0.8530248672169228,950.6440677226583,0.1688229445198726,0.24975835774783542,99.77483244183033,-0.10672497823135348,162.3900500414565,1
6830,0.6708875873900658,0.6990820028591322,704.4080165964862,0.26591571294976185,0.3884116438977191,116.59339799987512,0.14576119487775907,169.1922411653549,0
6840,1.168643219924431,1.2331393326513032,813.7282146015808,0.1855399987359973,0.25965449084682457,88.46857488591883,-0.07625257516799487,158.5938881275783,0
6850,1.429375989127586,1.3558809236759557,801.2036640307279,0.2516089694833309,0.3551010593437999,85.76960084472414,0.07765266159049478,127.49259620859796,0
6860,1.05676289301393,1.1291657894684544,705.7982892752804,0.23486723322614944,0.27862435964141585,110.35907327416123,-0.19355014145111404,181.44715027349332,0
6870,1.0716126894698998,1.1561641275725787,737.310519700153,0.2893717075817531,0.2278508141569408,100.02478129335724,-0.05093714804234112,179.77797160708695,0
6880,0.7799790936602842,0.7773914774240713,824.0928024755906,0.2080983776962971,0.2021430595390718,116.47140449527086,-0.05931607281647669,144.93626571942497,0
6890,1.269492933191937,1.2907435207421325,847.859375334234,0.15992477832516605,0.3088514674030502,85.8645822863937,0.017393771433205807,144.49913961827204,0
6900,0.6870437485575234,0.7400057087381224,821.2869241764607,0.15287332283268792,0.39515576370978656,105.83711572092157,-0.1709054952891214,187.02731047244148,0
6910,0.8236792364042437,0.7586469618563262,859.2813035236281,0.274028784145913,0.2738272387618409,89.3151658460726,0.11605254949044336,125.78858061930613,0
6920,0.9254364386164168,0.9259496539091052,878.5395024717045,0.22871034564921483,0.271438466798609,86.27041714606557,-0.1128876792929726,190.48841186852525,0
6930,1.007610378684455,0.9873429842389176,702.9771463383507,0.2662866077752424,0.26881832356988844,107.33717660629083,0.07081512595280409,140.53293519167315,0
6940,0.7424097324150802,0.6716845308475301,839.2285478360511,0.1851638400017272,0.3041087674609717,103.74738479634934,0.12128484929763728,167.43877982043952,0
6950,0.6148368247392035,0.5883437091975098,989.0497722662765,0.20176256182698504,0.2881329766848587,110.19309833449324,0.024750782496605256,194.87953432014223,0
6960,1.1106200424416326,1.0242545043187312,855.7096840388647,0.15451558083169784,0.3759829253454029,92.3785030578473,0.09635328268879417,174.24980012293173,0
6970,0.7886305532402558,0.6937929346301531,903.2626802376859,0.29422384868611684,0.30110415834469806,97.9188662552876,0.06474412488600223,153.1543849973629,1
6980,1.0812382214226122,1.0082714792535767,793.559157375065,0.250180186005122,0.3015515676377138,96.21886705321674,-0.05778808113919695,175.16273671243323,0
6990,0.6543627152742023,0.7469857375920371,932.1974134458287,0.2899807631638959,0.22767431894411133,119.36357855866058,0.12354341561342613,147.5183709053096,0
7000,0.9811401018548175,0.9910460090338209,931.8764445628345,0.18982446111436085,0.3965479081820772,91.68995826957551,-0.08211945204578881,142.18067330793488,0
7010,1.0325894325515859,1.1257538647822298,856.3888142962417,0.24171954168384913,0.24999457817376594,91.79268953387067,0.028485167100606862,199.73466223477436,1
7020,0.5518235368224269,0.5383231124884533,992.8041469837641,0.2517749952438957,0.21467281349192055,94.1819283531443,0.09815909565661579,180.06321849438302,1
7030,0.8366042781939206,0.7989675048109725,737.665064428796,0.19763245503863824,0.33262924979504177,102.58376325161287,-0.04841763607499697,171.57759819054542,0
7040,0.6344146769389742,0.6356430495070231,705.0842994668743,0.2772163852523445,0.31907327403137453,90.09290977054981,-0.07889295695302999,148.4231714575455,0
7050,0.5633749704727677,0.5512773081993497,931.0474635271288,0.2920742194350372,0.2830291307985492,116.61159761517095,-0.016261595930870898,123.93286633240385,0
7060,1.4899602323899452,1.411093169242294,942.1466612094648,0.2827282676544006,0.2844384467761356,90.62742259465054,0.12718539773966148,122.48455008281245,0
7070,0.822353844974723,0.8505191079127642,736.0621687361729,0.2608600463909059,0.3570127842092863,115.83262926240778,0.1719687052582659,164.33450043590392,1
7080,1.3098744458546348,1.2530820823565547,779.6748498875818,0.1916197019587431,0.23914252801992983,84.13900254586339,0.018033365143956065,180.96261768312408,0
7090,0.7546406547637639,0.7785582457433298,705.2657090099887,0.19224240631584474,0.364050663788978,106.26250809598609,0.06458648212946072,162.9903352355084,0
7100,1.1815027222239292,1.2115429407035598,787.9925832341694,0.29450404806690567,0.32974942277900365,116.27942073752975,0.1613094488955657,187.26280575512916,1
7110,1.2602278598896866,1.1906328305154161,931.9425621756014,0.1515426743903538,0.2837939547559049,86.74997753592918,-0.16058125943482304,122.67412264745774,1
7120,1.0956387406078443,1.0079086660299779,855.3881583137737,0.2574074959863217,0.29160572331677376,118.7330784039702,-0.10716856885353399,149.3401661140752,0
7130,0.9715761885501584,1.0277285057638463,804.4286779504864,0.2559369243832893,0.2513294414372192,98.11533441662047,0.083560002500633,138.96563129393425,0
7140,0.9118409141472685,0.9038009989011325,811.5217884718991,0.2434034311424696,0.350422866539395,117.82860433764098,0.12949778476491985,155.78183745256976,0
7150,0.8488682665429953,0.7605010256440905,700.4060877146404,0.2985163269130299,0.3025749484610536,107.07280174520187,0.1428116113322312,125.7901114555298,1
7160,1.4295291442478257,1.5285024076817793,789.9401582695708,0.19678191536455877,0.2641709085499687,92.06347479494207,-0.033957129258026963,196.3305313256858,1
7170,1.3306194077877291,1.2421755199870024,893.9376224913792,0.20099577956898723,0.31921002315219005,87.53210099668425,-0.16426403908325327,137.86043208554887,0
7180,1.4650269106665126,1.5040339564382232,992.258333144907,0.16184091044198332,0.39914689041026463,92.14940184900398,-0.024887409080152023,193.7846220386868,0
7190,0.6242972234855447,0.7210330085382275,954.1182480951699,0.2164197204815606,0.2870524559313108,83.720696370507,-0.1077061639171785,154.07145240293454,1
7200,1.2308674752036444,1.1787034960468294,707.0784893936587,0.1891572789352272,0.38413828015572393,85.75471865373319,-0.08352141800135034,198.84193066041746,0
7210,1.4383404568210378,1.366790330558477,969.5681814024517,0.20150800532664662,0.26900336798491326,84.18641761385925,0.10890702273500236,164.32467067681685,0
7220,0.6812330661656602,0.6055100540501459,934.9595239895878,0.27518576853834414,0.2109465413849972,96.91774174966231,-0.16978916558964527,194.4666291340646,1
7230,0.5664962673667775,0.5271512968802966,934.112837071294,0.29032267702912434,0.24084842127368578,111.82313505030345,0.13103248699228087,120.42791909553783,0
7240,1.241120649290059,1.1613298114921884,837.3987277010715,0.17785996080077784,0.28373902866553685,85.6553421686536,-0.02893236567033236,179.859104494472,0
7250,1.074473113179912,1.1129053815187382,819.4015878863509,0.2058763397330199,0.2439269857189138,85.21281732689343,0.03842557244023803,192.24405224820123,1
7260,1.341828776758272,1.2542871363842845,790.8747186499578,0.2892945843173091,0.2000454076436511,105.73715798069323,-0.1641391075057284,131.17764535831634,1
7270,0.6397723766262895,0.6416568022562474,719.7084576863098,0.15927126910338338,0.3830003075495055,87.88731927872266,-0.06505636865708816,127.69006813857212,0
7280,1.2952673118598903,1.3946066826304857,768.4706090481097,0.16385407921670678,0.36877588224618585,83.90440152435967,-0.1641196323940617,153.96580857487646,0
7290,0.7016273200477445,0.7644213739489483,773.9810904934074,0.1744186483809344,0.3484584462973894,86.6739431282231,0.18461748915244386,194.69431249063481,0
7300,0.6636559428657045,0.6866998305119066,845.2231209130605,0.2392819251190312,0.23356291912920574,116.94925583507104,0.12290465973050019,163.3909248152351,0
7310,0.6642657979309929,0.6255165220883153,924.2333219790082,0.17257084065089962,0.22407271524199723,112.85885011104763,-0.016146898257415915,162.19651709773856,0
7320,1.314574720231382,1.3393538874897097,842.1429485193839,0.29521145721761,0.21352094989447665,94.16258249420376,-0.11055898067053156,131.29008946394575,1
7330,1.1651972206962,1.1706055134785303,717.3533348341482,0.21700717908877803,0.3448058377545843,106.2328306930957,0.1733820420999409,120.0631608874575,0
7340,1.0230654247691193,1.0082821015471937,987.3369402964611,0.22522769405252496,0.3857615921375771,101.49102694672152,-0.0621613617092113,184.8112072596369,0
7350,0.8588304841235025,0.7849725594715424,982.8172957282336,0.18699879237081096,0.2861071641826074,107.08497053930256,-0.13560622732505012,127.00596503889906,0
7360,1.3772005408131083,1.4545213838612017,935.5568629445225,0.22064403786521003,0.22382813439920965,107.30684609851038,0.02526575538158196,170.7079854988259,1
7370,0.8924451074226354,0.8824020371868999,997.3983704692662,0.2492870448955517,0.3024785641464213,105.14936060239972,0.17750964813792647,193.16931636121532,0
7380,1.316599439471577,1.25552394183573,863.3446998400789,0.2626765705431064,0.26976638149172605,90.64405474149234,-0.198467883799871,136.69215305267448,0
7390,0.9391349085702184,0.9126867787456764,988.8305050759618,0.26308021240648694,0.27496498486999954,81.56025683051273,-0.10475006269840051,173.22182689895286,0
7400,0.8769444294249076,0.8597703799306929,722.6815121850252,0.23668366690411324,0.3242661248311415,98.22267127960436,0.17537905616416305,126.29588613660076,0
7410,0.9626797856696064,1.0281873647829813,809.7042244784113,0.2856539662490786,0.3437436226524405,115.63895538762816,-0.13156561325713517,168.30041150700904,0
7420,0.8013778741641421,0.8481007502764225,767.6143804020297,0.2726111770959164,0.22212071977463219,102.77989034074304,-0.15470261934407206,133.11453767625622,0
7430,1.2476093801762511,1.3014703589045191,758.749925240281,0.2635572172047938,0.20711804616129528,113.29564166807631,0.028074886319921777,178.87628484121424,0
7440,1.0027203900924793,0.9049266429782087,742.2408846678028,0.15834082825206908,0.398866060537143,119.66497371844912,0.144737529317932,144.09850358351267,0
7450,0.7322126951468173,0.7154434947827696,886.724092469799,0.15103169433294739,0.24654566978311038,86.54464816553104,-0.009156072922429537,157.0712807043717,0
7460,1.3995745732745686,1.3958434036016334,934.3965567241916,0.18186709157932093,0.21076610498169182,107.67110556567928,0.1978257026738099,167.95444336220973,0
7470,0.8838912213732114,0.7877296767378228,873.4895198261082,0.24952853908701783,0.237975065819184,106.97174294800098,0.07166867981519714,133.70187285329916,0
7480,1.0435528611139886,0.9955155028629954,744.088812876463,0.21167962333238186,0.20779156926969286,119.19821789433114,-0.1703700371158209,179.33102548940968,0
7490,1.4064721109645468,1.4585300755889739,943.3371309800413,0.21036093889489677,0.27836217892343434,119.42402935811202,0.19713285267279018,144.21122725094517,0
7500,1.124237995913992,1.0516599370597919,890.7864121491185,0.282688033234442,0.36048035689026486,107.46714446896519,-0.036842305287923816,172.98974879302028,0
7510,0.6168980407083641,0.6239600669988824,816.4497118380987,0.2843344272197758,0.26824888995154417,89.74459167928777,-0.08503898646180699,132.6626440559499,0
7520,1.439832123613475,1.3828724980169225,902.2390886608189,0.28637628960803785,0.2888366813756733,111.94223352522397,0.023151673431154235,175.04941273650803,0
7530,1.1277080530714179,1.0301322080001964,777.9714937728498,0.1970817114772541,0.3351173547134878,84.28116536844152,-0.07827696327165429,130.25504582483694,0
